# == pyFAI calibration ==
# SplineFile: None
# PixelSize: 1.000e-04, 1.000e-04 m
# PONI: 1.632e-01, 2.045e-01 m
# Distance Sample to Detector: 0.72024876672 m
# Rotations: -0.087266 0.000000 0.000000 rad
# 
# == Fit2d calibration ==
# Distance Sample-beamCenter: 723.000 mm
# Center: x=2675.000, y=1632.000 pix
# Tilt: 5.000 deg  TiltPlanRot: 0.000 deg
# 
# Wavelength: 7.09e-10
# Polarization factor: None
# Normalization factor: None
# --> OT-2015-08-20-tetradec-1800s.rgr
#       q_nm^-1              I           sigma 
  3.005562e-02    5.611901e+02   5.753322e+00
  3.188733e-02    4.931428e+02   2.951767e+00
  3.371904e-02    4.173049e+02   2.243900e+00
  3.555076e-02    3.507654e+02   1.826119e+00
  3.738247e-02    2.952582e+02   1.550812e+00
  3.921418e-02    2.519335e+02   1.343726e+00
  4.104589e-02    2.186687e+02   1.172056e+00
  4.287760e-02    1.926957e+02   1.047195e+00
  4.470931e-02    1.715247e+02   9.237041e-01
  4.654102e-02    1.541187e+02   8.020106e-01
  4.837274e-02    1.380190e+02   6.975735e-01
  5.020445e-02    1.232182e+02   6.272972e-01
  5.203616e-02    1.137151e+02   5.847076e-01
  5.386787e-02    1.044202e+02   5.474234e-01
  5.569958e-02    9.777515e+01   5.190271e-01
  5.753129e-02    9.115629e+01   4.911727e-01
  5.936300e-02    8.592367e+01   4.677245e-01
  6.119472e-02    8.163004e+01   4.474004e-01
  6.302643e-02    7.764231e+01   4.286900e-01
  6.485814e-02    7.333704e+01   4.097949e-01
  6.668985e-02    6.937498e+01   3.922624e-01
  6.852156e-02    6.706491e+01   3.789806e-01
  7.035327e-02    6.455502e+01   3.660816e-01
  7.218499e-02    6.299709e+01   3.560720e-01
  7.401670e-02    5.996340e+01   3.425821e-01
  7.584841e-02    5.831925e+01   3.332276e-01
  7.768012e-02    5.604198e+01   3.222713e-01
  7.951183e-02    5.506372e+01   3.150648e-01
  8.134354e-02    5.426700e+01   3.087849e-01
  8.317525e-02    5.238106e+01   2.992734e-01
  8.500697e-02    5.085662e+01   2.913584e-01
  8.683868e-02    5.077614e+01   2.876812e-01
  8.867039e-02    4.948955e+01   2.807004e-01
  9.050210e-02    4.895849e+01   2.759549e-01
  9.233381e-02    4.813828e+01   2.705628e-01
  9.416552e-02    4.727961e+01   2.651886e-01
  9.599724e-02    4.732765e+01   2.626606e-01
  9.782895e-02    4.659764e+01   2.578772e-01
  9.966066e-02    4.552271e+01   2.520717e-01
  1.014924e-01    4.490070e+01   2.478412e-01
  1.033241e-01    4.465970e+01   2.446914e-01
  1.051558e-01    4.425234e+01   2.412533e-01
  1.069875e-01    4.344181e+01   2.368819e-01
  1.088192e-01    4.272166e+01   2.327605e-01
  1.106509e-01    4.274910e+01   2.306450e-01
  1.124826e-01    4.228296e+01   2.273583e-01
  1.143144e-01    4.210390e+01   2.247260e-01
  1.161461e-01    4.206602e+01   2.226917e-01
  1.179778e-01    4.184262e+01   2.202973e-01
  1.198095e-01    4.138866e+01   2.172732e-01
  1.216412e-01    4.160225e+01   2.160227e-01
  1.234729e-01    4.147602e+01   2.139415e-01
  1.253046e-01    4.073503e+01   2.103291e-01
  1.271363e-01    4.088480e+01   2.090845e-01
  1.289680e-01    4.112908e+01   2.081828e-01
  1.307998e-01    4.158591e+01   2.077146e-01
  1.326315e-01    4.180973e+01   2.068047e-01
  1.344632e-01    4.248371e+01   2.069375e-01
  1.362949e-01    4.378540e+01   2.086258e-01
  1.381266e-01    4.578289e+01   2.118094e-01
  1.399583e-01    4.888541e+01   2.170202e-01
  1.417900e-01    5.292339e+01   2.238303e-01
  1.436217e-01    5.932590e+01   2.352487e-01
  1.454534e-01    7.102444e+01   2.557129e-01
  1.472852e-01    9.433627e+01   2.928293e-01
  1.491169e-01    1.414458e+02   3.560606e-01
  1.509486e-01    2.267790e+02   4.480107e-01
  1.527803e-01    3.507642e+02   5.533185e-01
  1.546120e-01    4.875888e+02   6.483843e-01
  1.564437e-01    5.897095e+02   7.082571e-01
  1.582754e-01    6.159010e+02   7.195200e-01
  1.601071e-01    5.572531e+02   6.800791e-01
  1.619389e-01    4.382931e+02   5.998370e-01
  1.637706e-01    3.039228e+02   4.963475e-01
  1.656023e-01    1.936956e+02   3.940660e-01
  1.674340e-01    1.226828e+02   3.117165e-01
  1.692657e-01    8.442241e+01   2.572110e-01
  1.710974e-01    6.524751e+01   2.248047e-01
  1.729291e-01    5.583060e+01   2.068455e-01
  1.747608e-01    5.108668e+01   1.967170e-01
  1.765925e-01    4.853445e+01   1.907194e-01
  1.784243e-01    4.597913e+01   1.846382e-01
  1.802560e-01    4.394926e+01   1.795723e-01
  1.820877e-01    4.357378e+01   1.778151e-01
  1.839194e-01    4.282591e+01   1.753604e-01
  1.857511e-01    4.263507e+01   1.740316e-01
  1.875828e-01    4.249284e+01   1.728486e-01
  1.894145e-01    4.196434e+01   1.708745e-01
  1.912462e-01    4.158435e+01   1.692356e-01
  1.930779e-01    4.162883e+01   1.684691e-01
  1.949097e-01    4.111161e+01   1.665963e-01
  1.967414e-01    4.040723e+01   1.643966e-01
  1.985731e-01    3.955436e+01   1.618764e-01
  2.004048e-01    3.948193e+01   1.609314e-01
  2.022365e-01    3.902806e+01   1.592527e-01
  2.040682e-01    3.843602e+01   1.572759e-01
  2.058999e-01    3.812104e+01   1.558605e-01
  2.077316e-01    3.777841e+01   1.544118e-01
  2.095634e-01    3.796983e+01   1.541086e-01
  2.113951e-01    3.777472e+01   1.529809e-01
  2.132268e-01    3.803055e+01   1.528573e-01
  2.150585e-01    3.793885e+01   1.519926e-01
  2.168902e-01    3.795897e+01   1.513827e-01
  2.187219e-01    3.767133e+01   1.501146e-01
  2.205536e-01    3.743521e+01   1.490169e-01
  2.223853e-01    3.749759e+01   1.484637e-01
  2.242170e-01    3.784200e+01   1.485379e-01
  2.260488e-01    3.781833e+01   1.478247e-01
  2.278805e-01    3.769014e+01   1.469752e-01
  2.297122e-01    3.758806e+01   1.461597e-01
  2.315439e-01    3.723810e+01   1.449181e-01
  2.333756e-01    3.703782e+01   1.439130e-01
  2.352073e-01    3.692147e+01   1.431185e-01
  2.370390e-01    3.687420e+01   1.424285e-01
  2.388707e-01    3.701970e+01   1.421496e-01
  2.407024e-01    3.715911e+01   1.418394e-01
  2.425342e-01    3.715905e+01   1.412797e-01
  2.443659e-01    3.716167e+01   1.407242e-01
  2.461976e-01    3.695275e+01   1.397834e-01
  2.480293e-01    3.653812e+01   1.384955e-01
  2.498610e-01    3.656837e+01   1.380171e-01
  2.516927e-01    3.638326e+01   1.371473e-01
  2.535244e-01    3.660774e+01   1.370417e-01
  2.553561e-01    3.677148e+01   1.368526e-01
  2.571878e-01    3.691126e+01   1.365786e-01
  2.590196e-01    3.670057e+01   1.357014e-01
  2.608513e-01    3.695382e+01   1.356416e-01
  2.626830e-01    3.692624e+01   1.351255e-01
  2.645147e-01    3.685833e+01   1.344943e-01
  2.663464e-01    3.661623e+01   1.336216e-01
  2.681781e-01    3.654581e+01   1.329925e-01
  2.700098e-01    3.664562e+01   1.327265e-01
  2.718415e-01    3.665724e+01   1.322430e-01
  2.736733e-01    3.663074e+01   1.317293e-01
  2.755050e-01    3.653296e+01   1.310730e-01
  2.773367e-01    3.628912e+01   1.302055e-01
  2.791684e-01    3.617854e+01   1.295426e-01
  2.810001e-01    3.621812e+01   1.291923e-01
  2.828318e-01    3.617957e+01   1.286824e-01
  2.846635e-01    3.640014e+01   1.286737e-01
  2.864952e-01    3.602170e+01   1.275572e-01
  2.883269e-01    3.616192e+01   1.273951e-01
  2.901587e-01    3.621116e+01   1.270564e-01
  2.919904e-01    3.641857e+01   1.270117e-01
  2.938221e-01    3.632919e+01   1.264344e-01
  2.956538e-01    3.624087e+01   1.258800e-01
  2.974855e-01    3.660359e+01   1.260902e-01
  2.993172e-01    3.681805e+01   1.260850e-01
  3.011489e-01    3.716664e+01   1.262803e-01
  3.029806e-01    3.759325e+01   1.266144e-01
  3.048123e-01    3.850154e+01   1.277178e-01
  3.066441e-01    4.012881e+01   1.299960e-01
  3.084758e-01    4.357398e+01   1.350251e-01
  3.103075e-01    4.865353e+01   1.422605e-01
  3.121392e-01    5.451519e+01   1.501022e-01
  3.139709e-01    6.034888e+01   1.574630e-01
  3.158026e-01    6.185917e+01   1.589044e-01
  3.176343e-01    5.979026e+01   1.558127e-01
  3.194660e-01    5.519910e+01   1.492410e-01
  3.212978e-01    4.912377e+01   1.403959e-01
  3.231295e-01    4.387412e+01   1.322668e-01
  3.249612e-01    4.035732e+01   1.264997e-01
  3.267929e-01    3.790992e+01   1.222371e-01
  3.286246e-01    3.678205e+01   1.200702e-01
  3.304563e-01    3.627486e+01   1.188849e-01
  3.322880e-01    3.587715e+01   1.178984e-01
  3.341197e-01    3.571473e+01   1.172953e-01
  3.359514e-01    3.553228e+01   1.166874e-01
  3.377832e-01    3.553428e+01   1.163619e-01
  3.396149e-01    3.555980e+01   1.160772e-01
  3.414466e-01    3.554233e+01   1.157050e-01
  3.432783e-01    3.547418e+01   1.152650e-01
  3.451100e-01    3.558247e+01   1.151286e-01
  3.469417e-01    3.581497e+01   1.151797e-01
  3.487734e-01    3.587709e+01   1.149700e-01
  3.506051e-01    3.578578e+01   1.144950e-01
  3.524368e-01    3.602787e+01   1.145953e-01
  3.542686e-01    3.598040e+01   1.142130e-01
  3.561003e-01    3.615685e+01   1.141948e-01
  3.579320e-01    3.625103e+01   1.140324e-01
  3.597637e-01    3.639364e+01   1.139595e-01
  3.615954e-01    3.675596e+01   1.142132e-01
  3.634271e-01    3.707038e+01   1.144096e-01
  3.652588e-01    3.786713e+01   1.153211e-01
  3.670905e-01    3.820666e+01   1.155353e-01
  3.689223e-01    3.859748e+01   1.158450e-01
  3.707540e-01    3.877990e+01   1.158261e-01
  3.725857e-01    3.929075e+01   1.162924e-01
  3.744174e-01    3.959779e+01   1.164476e-01
  3.762491e-01    3.958125e+01   1.161295e-01
  3.780808e-01    4.069282e+01   1.174492e-01
  3.799125e-01    4.135285e+01   1.180988e-01
  3.817442e-01    4.169292e+01   1.182903e-01
  3.835759e-01    4.235392e+01   1.189195e-01
  3.854077e-01    4.289233e+01   1.193837e-01
  3.872394e-01    4.339808e+01   1.198054e-01
  3.890711e-01    4.367405e+01   1.198985e-01
  3.909028e-01    4.391003e+01   1.199219e-01
  3.927345e-01    4.391135e+01   1.196363e-01
  3.945662e-01    4.437970e+01   1.199765e-01
  3.963979e-01    4.491684e+01   1.204225e-01
  3.982296e-01    4.499303e+01   1.202234e-01
  4.000613e-01    4.499176e+01   1.199444e-01
  4.018931e-01    4.498630e+01   1.196425e-01
  4.037248e-01    4.481983e+01   1.191545e-01
  4.055565e-01    4.447418e+01   1.184198e-01
  4.073882e-01    4.409698e+01   1.176396e-01
  4.092199e-01    4.401224e+01   1.172397e-01
  4.110516e-01    4.330691e+01   1.160283e-01
  4.128833e-01    4.285698e+01   1.151524e-01
  4.147150e-01    4.234050e+01   1.141957e-01
  4.165468e-01    4.182261e+01   1.132359e-01
  4.183785e-01    4.131570e+01   1.122841e-01
  4.202102e-01    4.041539e+01   1.108060e-01
  4.220419e-01    3.984719e+01   1.097805e-01
  4.238736e-01    3.906793e+01   1.084710e-01
  4.257053e-01    3.861887e+01   1.075993e-01
  4.275370e-01    3.822107e+01   1.068213e-01
  4.293687e-01    3.779316e+01   1.059640e-01
  4.312004e-01    3.731271e+01   1.050695e-01
  4.330322e-01    3.673776e+01   1.040199e-01
  4.348639e-01    3.629556e+01   1.031796e-01
  4.366956e-01    3.597086e+01   1.024827e-01
  4.385273e-01    3.563887e+01   1.018093e-01
  4.403590e-01    3.517603e+01   1.009222e-01
  4.421907e-01    3.491653e+01   1.003440e-01
  4.440224e-01    3.465805e+01   9.974542e-02
  4.458541e-01    3.437628e+01   9.912744e-02
  4.476858e-01    3.446368e+01   9.903758e-02
  4.495176e-01    3.442627e+01   9.878278e-02
  4.513493e-01    3.419311e+01   9.823346e-02
  4.531810e-01    3.433437e+01   9.823325e-02
  4.550127e-01    3.427895e+01   9.794156e-02
  4.568444e-01    3.434555e+01   9.784964e-02
  4.586761e-01    3.478508e+01   9.825466e-02
  4.605078e-01    3.502171e+01   9.839110e-02
  4.623395e-01    3.611238e+01   9.968852e-02
  4.641713e-01    3.833050e+01   1.025131e-01
  4.660030e-01    4.312884e+01   1.085018e-01
  4.678347e-01    5.009309e+01   1.167144e-01
  4.696664e-01    5.922906e+01   1.266318e-01
  4.714981e-01    6.761105e+01   1.350467e-01
  4.733298e-01    7.260378e+01   1.396381e-01
  4.751615e-01    7.194574e+01   1.387506e-01
  4.769932e-01    6.534814e+01   1.319448e-01
  4.788249e-01    5.700611e+01   1.230146e-01
  4.806567e-01    4.825153e+01   1.129457e-01
  4.824884e-01    4.128330e+01   1.042801e-01
  4.843201e-01    3.675511e+01   9.818532e-02
  4.861518e-01    3.434030e+01   9.472153e-02
  4.879835e-01    3.319061e+01   9.293108e-02
  4.898152e-01    3.250853e+01   9.179542e-02
  4.916469e-01    3.211933e+01   9.107614e-02
  4.934786e-01    3.180073e+01   9.044996e-02
  4.953103e-01    3.158049e+01   8.996251e-02
  4.971421e-01    3.139609e+01   8.952442e-02
  4.989738e-01    3.096525e+01   8.874349e-02
  5.008055e-01    3.102230e+01   8.864980e-02
  5.026372e-01    3.085708e+01   8.824954e-02
  5.044689e-01    3.079312e+01   8.798771e-02
  5.063006e-01    3.057691e+01   8.751200e-02
  5.081323e-01    3.042210e+01   8.714316e-02
  5.099640e-01    3.021691e+01   8.669079e-02
  5.117958e-01    3.005905e+01   8.630280e-02
  5.136275e-01    2.975543e+01   8.570166e-02
  5.154592e-01    2.991537e+01   8.576886e-02
  5.172909e-01    2.987850e+01   8.555619e-02
  5.191226e-01    2.962550e+01   8.503906e-02
  5.209543e-01    2.960049e+01   8.484738e-02
  5.227860e-01    2.929758e+01   8.425827e-02
  5.246177e-01    2.939555e+01   8.425044e-02
  5.264494e-01    2.941116e+01   8.412319e-02
  5.282812e-01    2.932957e+01   8.385477e-02
  5.301129e-01    2.922444e+01   8.354359e-02
  5.319446e-01    2.898128e+01   8.305555e-02
  5.337763e-01    2.887193e+01   8.273840e-02
  5.356080e-01    2.889467e+01   8.263478e-02
  5.374397e-01    2.864841e+01   8.212307e-02
  5.392714e-01    2.872142e+01   8.209231e-02
  5.411031e-01    2.852219e+01   8.164707e-02
  5.429348e-01    2.844904e+01   8.141337e-02
  5.447666e-01    2.850274e+01   8.133367e-02
  5.465983e-01    2.848673e+01   8.118210e-02
  5.484300e-01    2.844387e+01   8.096811e-02
  5.502617e-01    2.834697e+01   8.070031e-02
  5.520934e-01    2.839416e+01   8.062010e-02
  5.539251e-01    2.837104e+01   8.045066e-02
  5.557568e-01    2.824319e+01   8.012422e-02
  5.575885e-01    2.825228e+01   8.000538e-02
  5.594203e-01    2.813704e+01   7.970211e-02
  5.612520e-01    2.802636e+01   7.942094e-02
  5.630837e-01    2.808439e+01   7.937084e-02
  5.649154e-01    2.812343e+01   7.929125e-02
  5.667471e-01    2.809271e+01   7.911196e-02
  5.685788e-01    2.803410e+01   7.889359e-02
  5.704105e-01    2.794710e+01   7.864011e-02
  5.722422e-01    2.782000e+01   7.833036e-02
  5.740739e-01    2.776420e+01   7.811467e-02
  5.759057e-01    2.773024e+01   7.794106e-02
  5.777374e-01    2.763217e+01   7.768479e-02
  5.795691e-01    2.749017e+01   7.736060e-02
  5.814008e-01    2.745539e+01   7.717878e-02
  5.832325e-01    2.738399e+01   7.695658e-02
  5.850642e-01    2.728012e+01   7.668331e-02
  5.868959e-01    2.722755e+01   7.648327e-02
  5.887276e-01    2.726841e+01   7.641563e-02
  5.905593e-01    2.741034e+01   7.648659e-02
  5.923911e-01    2.731763e+01   7.623621e-02
  5.942228e-01    2.710761e+01   7.582414e-02
  5.960545e-01    2.708257e+01   7.567835e-02
  5.978862e-01    2.703112e+01   7.547690e-02
  5.997179e-01    2.698940e+01   7.530453e-02
  6.015496e-01    2.691045e+01   7.506514e-02
  6.033813e-01    2.677393e+01   7.476618e-02
  6.052130e-01    2.690110e+01   7.481888e-02
  6.070448e-01    2.681496e+01   7.458739e-02
  6.088765e-01    2.677766e+01   7.441010e-02
  6.107082e-01    2.678137e+01   7.429207e-02
  6.125399e-01    2.686674e+01   7.429356e-02
  6.143716e-01    2.678944e+01   7.407632e-02
  6.162033e-01    2.687748e+01   7.407575e-02
  6.180350e-01    2.715059e+01   7.433626e-02
  6.198667e-01    2.725181e+01   7.436298e-02
  6.216984e-01    2.761059e+01   7.473346e-02
  6.235302e-01    2.828791e+01   7.552096e-02
  6.253619e-01    2.968266e+01   7.723702e-02
  6.271936e-01    3.151676e+01   7.946912e-02
  6.290253e-01    3.316557e+01   8.139876e-02
  6.308570e-01    3.418573e+01   8.252457e-02
  6.326887e-01    3.418570e+01   8.240766e-02
  6.345204e-01    3.329108e+01   8.120454e-02
  6.363521e-01    3.176213e+01   7.920141e-02
  6.381838e-01    3.004113e+01   7.691047e-02
  6.400156e-01    2.847018e+01   7.475602e-02
  6.418473e-01    2.742447e+01   7.325742e-02
  6.436790e-01    2.664327e+01   7.209594e-02
  6.455107e-01    2.643165e+01   7.170828e-02
  6.473424e-01    2.628171e+01   7.139259e-02
  6.491741e-01    2.595274e+01   7.084152e-02
  6.510058e-01    2.586188e+01   7.060690e-02
  6.528375e-01    2.589143e+01   7.055131e-02
  6.546693e-01    2.560389e+01   7.004680e-02
  6.565010e-01    2.575839e+01   7.016528e-02
  6.583327e-01    2.549132e+01   6.968588e-02
  6.601644e-01    2.566710e+01   6.983581e-02
  6.619961e-01    2.563342e+01   6.967999e-02
  6.638278e-01    2.553614e+01   6.945934e-02
  6.656595e-01    2.532158e+01   6.906393e-02
  6.674912e-01    2.525125e+01   6.887329e-02
  6.693229e-01    2.530600e+01   6.884077e-02
  6.711547e-01    2.525472e+01   6.867303e-02
  6.729864e-01    2.535727e+01   6.870868e-02
  6.748181e-01    2.525110e+01   6.846997e-02
  6.766498e-01    2.511722e+01   6.818992e-02
  6.784815e-01    2.491612e+01   6.781966e-02
  6.803132e-01    2.490978e+01   6.771381e-02
  6.821449e-01    2.491958e+01   6.764014e-02
  6.839766e-01    2.498911e+01   6.763557e-02
  6.858083e-01    2.492533e+01   6.745754e-02
  6.876401e-01    2.472674e+01   6.709066e-02
  6.894718e-01    2.477588e+01   6.706554e-02
  6.913035e-01    2.465683e+01   6.680820e-02
  6.931352e-01    2.457381e+01   6.660522e-02
  6.949669e-01    2.442001e+01   6.630382e-02
  6.967986e-01    2.436766e+01   6.614106e-02
  6.986303e-01    2.432997e+01   6.599901e-02
  7.004620e-01    2.423000e+01   6.577055e-02
  7.022938e-01    2.431979e+01   6.581291e-02
  7.041255e-01    2.422353e+01   6.558716e-02
  7.059572e-01    2.435387e+01   6.567263e-02
  7.077889e-01    2.437670e+01   6.560641e-02
  7.096206e-01    2.421746e+01   6.530949e-02
  7.114523e-01    2.410915e+01   6.506860e-02
  7.132840e-01    2.403512e+01   6.488531e-02
  7.151157e-01    2.415567e+01   6.496029e-02
  7.169474e-01    2.401163e+01   6.468208e-02
  7.187792e-01    2.411599e+01   6.473119e-02
  7.206109e-01    2.413443e+01   6.466750e-02
  7.224426e-01    2.404277e+01   6.446238e-02
  7.242743e-01    2.375515e+01   6.399100e-02
  7.261060e-01    2.384654e+01   6.402138e-02
  7.279377e-01    2.390773e+01   6.402327e-02
  7.297694e-01    2.379219e+01   6.378652e-02
  7.316011e-01    2.393611e+01   6.389740e-02
  7.334328e-01    2.386413e+01   6.371814e-02
  7.352646e-01    2.399495e+01   6.380470e-02
  7.370963e-01    2.395974e+01   6.367561e-02
  7.389280e-01    2.390618e+01   6.352456e-02
  7.407597e-01    2.386753e+01   6.338941e-02
  7.425914e-01    2.384832e+01   6.327644e-02
  7.444231e-01    2.383934e+01   6.317794e-02
  7.462548e-01    2.380864e+01   6.305345e-02
  7.480865e-01    2.374467e+01   6.289309e-02
  7.499183e-01    2.369496e+01   6.274759e-02
  7.517500e-01    2.394279e+01   6.299361e-02
  7.535817e-01    2.388565e+01   6.283235e-02
  7.554134e-01    2.396268e+01   6.285843e-02
  7.572451e-01    2.402499e+01   6.285208e-02
  7.590768e-01    2.392663e+01   6.264479e-02
  7.609085e-01    2.385195e+01   6.245943e-02
  7.627402e-01    2.398302e+01   6.255845e-02
  7.645719e-01    2.420720e+01   6.276733e-02
  7.664037e-01    2.421998e+01   6.271256e-02
  7.682354e-01    2.404194e+01   6.240576e-02
  7.700671e-01    2.393511e+01   6.218763e-02
  7.718988e-01    2.402066e+01   6.221802e-02
  7.737305e-01    2.405482e+01   6.218569e-02
  7.755622e-01    2.392197e+01   6.193324e-02
  7.773939e-01    2.416348e+01   6.216956e-02
  7.792256e-01    2.452291e+01   6.254450e-02
  7.810573e-01    2.499880e+01   6.306559e-02
  7.828891e-01    2.616612e+01   6.443227e-02
  7.847208e-01    2.743740e+01   6.590253e-02
  7.865525e-01    2.865355e+01   6.726134e-02
  7.883842e-01    2.957512e+01   6.826534e-02
  7.902159e-01    2.969797e+01   6.833393e-02
  7.920476e-01    2.920563e+01   6.769130e-02
  7.938793e-01    2.813290e+01   6.636301e-02
  7.957110e-01    2.689564e+01   6.480549e-02
  7.975428e-01    2.573737e+01   6.331986e-02
  7.993745e-01    2.478768e+01   6.205535e-02
  8.012062e-01    2.422226e+01   6.126952e-02
  8.030379e-01    2.400907e+01   6.092805e-02
  8.048696e-01    2.362090e+01   6.036163e-02
  8.067013e-01    2.335926e+01   5.995868e-02
  8.085330e-01    2.320933e+01   5.970498e-02
  8.103647e-01    2.318184e+01   5.960353e-02
  8.121964e-01    2.312818e+01   5.947504e-02
  8.140282e-01    2.314850e+01   5.943216e-02
  8.158599e-01    2.314887e+01   5.936368e-02
  8.176916e-01    2.298920e+01   5.909724e-02
  8.195233e-01    2.291286e+01   5.893188e-02
  8.213550e-01    2.296256e+01   5.893629e-02
  8.231867e-01    2.288092e+01   5.877743e-02
  8.250184e-01    2.283532e+01   5.864728e-02
  8.268501e-01    2.287890e+01   5.864512e-02
  8.286818e-01    2.284570e+01   5.853428e-02
  8.305136e-01    2.276893e+01   5.837237e-02
  8.323453e-01    2.266821e+01   5.818202e-02
  8.341770e-01    2.258917e+01   5.801536e-02
  8.360087e-01    2.247511e+01   5.781420e-02
  8.378404e-01    2.247469e+01   5.774493e-02
  8.396721e-01    2.237868e+01   5.756186e-02
  8.415038e-01    2.230614e+01   5.740746e-02
  8.433355e-01    2.221308e+01   5.722632e-02
  8.451672e-01    2.233479e+01   5.731839e-02
  8.469990e-01    2.235804e+01   5.729513e-02
  8.488307e-01    2.234814e+01   5.721131e-02
  8.506624e-01    2.216852e+01   5.692941e-02
  8.524941e-01    2.209566e+01   5.697326e-02
  8.543258e-01    2.213852e+01   5.744441e-02
  8.561575e-01    2.222823e+01   5.778330e-02
  8.579892e-01    2.213672e+01   5.781973e-02
  8.598209e-01    2.199264e+01   5.774231e-02
  8.616527e-01    2.204689e+01   5.792852e-02
  8.634844e-01    2.207577e+01   5.804681e-02
  8.653161e-01    2.210153e+01   5.815289e-02
  8.671478e-01    2.211472e+01   5.828586e-02
  8.689795e-01    2.210653e+01   5.879898e-02
  8.708112e-01    2.206841e+01   5.920107e-02
  8.726429e-01    2.211124e+01   5.956488e-02
  8.744746e-01    2.212448e+01   5.981487e-02
  8.763063e-01    2.207729e+01   5.985316e-02
  8.781381e-01    2.226581e+01   6.019090e-02
  8.799698e-01    2.261404e+01   6.071630e-02
  8.818015e-01    2.289523e+01   6.117078e-02
  8.836332e-01    2.312694e+01   6.152138e-02
  8.854649e-01    2.320969e+01   6.169314e-02
  8.872966e-01    2.306970e+01   6.155420e-02
  8.891283e-01    2.300692e+01   6.150172e-02
  8.909600e-01    2.283466e+01   6.131421e-02
  8.927917e-01    2.261646e+01   6.106213e-02
  8.946235e-01    2.219674e+01   6.051750e-02
  8.964552e-01    2.211492e+01   6.044473e-02
  8.982869e-01    2.216193e+01   6.053466e-02
  9.001186e-01    2.209168e+01   6.046447e-02
  9.019503e-01    2.192965e+01   6.026446e-02
  9.037820e-01    2.204343e+01   6.045545e-02
  9.056137e-01    2.204471e+01   6.046177e-02
  9.074454e-01    2.220396e+01   6.070642e-02
  9.092772e-01    2.225486e+01   6.080200e-02
  9.111089e-01    2.217644e+01   6.069472e-02
  9.129406e-01    2.222218e+01   6.077529e-02
  9.147723e-01    2.212558e+01   6.067258e-02
  9.166040e-01    2.197365e+01   6.046876e-02
  9.184357e-01    2.194660e+01   6.043179e-02
  9.202674e-01    2.186782e+01   6.033697e-02
  9.220991e-01    2.184885e+01   6.032529e-02
  9.239308e-01    2.170627e+01   6.013779e-02
  9.257626e-01    2.174525e+01   6.019398e-02
  9.275943e-01    2.184261e+01   6.034149e-02
  9.294260e-01    2.192716e+01   6.046787e-02
  9.312577e-01    2.197944e+01   6.053348e-02
  9.330894e-01    2.216847e+01   6.079374e-02
  9.349211e-01    2.256432e+01   6.135541e-02
  9.367528e-01    2.312344e+01   6.212127e-02
  9.385845e-01    2.383337e+01   6.308339e-02
  9.404162e-01    2.458997e+01   6.409526e-02
  9.422480e-01    2.541110e+01   6.518915e-02
  9.440797e-01    2.620936e+01   6.623774e-02
  9.459114e-01    2.665760e+01   6.681061e-02
  9.477431e-01    2.675570e+01   6.695729e-02
  9.495748e-01    2.651622e+01   6.668334e-02
  9.514065e-01    2.576626e+01   6.575532e-02
  9.532382e-01    2.501114e+01   6.479103e-02
  9.550699e-01    2.421999e+01   6.376468e-02
  9.569017e-01    2.362375e+01   6.298462e-02
  9.587334e-01    2.301106e+01   6.223044e-02
  9.605651e-01    2.249634e+01   6.166096e-02
  9.623968e-01    2.212805e+01   6.126755e-02
  9.642285e-01    2.226849e+01   6.155601e-02
  9.660602e-01    2.226008e+01   6.163471e-02
  9.678919e-01    2.209572e+01   6.148458e-02
  9.697236e-01    2.205625e+01   6.150230e-02
  9.715553e-01    2.218513e+01   6.174768e-02
  9.733871e-01    2.228651e+01   6.194758e-02
  9.752188e-01    2.243265e+01   6.221538e-02
  9.770505e-01    2.241593e+01   6.224470e-02
  9.788822e-01    2.244666e+01   6.229726e-02
  9.807139e-01    2.232207e+01   6.212284e-02
  9.825456e-01    2.233201e+01   6.269703e-02
  9.843773e-01    2.234660e+01   6.305196e-02
  9.862090e-01    2.222316e+01   6.299838e-02
  9.880407e-01    2.231193e+01   6.320036e-02
  9.898725e-01    2.209283e+01   6.295994e-02
  9.917042e-01    2.206311e+01   6.295577e-02
  9.935359e-01    2.185378e+01   6.270321e-02
  9.953676e-01    2.191870e+01   6.282468e-02
  9.971993e-01    2.198166e+01   6.295997e-02
  9.990310e-01    2.193472e+01   6.290608e-02
  1.000863e+00    2.193030e+01   6.292301e-02
  1.002694e+00    2.212355e+01   6.322218e-02
  1.004526e+00    2.220873e+01   6.335467e-02
  1.006358e+00    2.231932e+01   6.352411e-02
  1.008190e+00    2.257865e+01   6.390425e-02
  1.010021e+00    2.299086e+01   6.450031e-02
  1.011853e+00    2.357715e+01   6.531906e-02
  1.013685e+00    2.422153e+01   6.621861e-02
  1.015516e+00    2.496317e+01   6.723291e-02
  1.017348e+00    2.525336e+01   6.762571e-02
  1.019180e+00    2.516842e+01   6.749226e-02
  1.021012e+00    2.477193e+01   6.692065e-02
  1.022843e+00    2.417861e+01   6.605395e-02
  1.024675e+00    2.374468e+01   6.541039e-02
  1.026507e+00    2.323851e+01   6.465597e-02
  1.028338e+00    2.279346e+01   6.399592e-02
  1.030170e+00    2.247059e+01   6.348473e-02
  1.032002e+00    2.227101e+01   6.315750e-02
  1.033834e+00    2.226642e+01   6.310038e-02
  1.035665e+00    2.218258e+01   6.293636e-02
  1.037497e+00    2.205951e+01   6.270571e-02
  1.039329e+00    2.210655e+01   6.272905e-02
  1.041160e+00    2.203872e+01   6.258918e-02
  1.042992e+00    2.205610e+01   6.256204e-02
  1.044824e+00    2.203567e+01   6.248228e-02
  1.046656e+00    2.207544e+01   6.248798e-02
  1.048487e+00    2.201493e+01   6.236161e-02
  1.050319e+00    2.205108e+01   6.235974e-02
  1.052151e+00    2.207431e+01   6.237481e-02
  1.053982e+00    2.223960e+01   6.259029e-02
  1.055814e+00    2.230927e+01   6.267849e-02
  1.057646e+00    2.259692e+01   6.306590e-02
  1.059477e+00    2.284593e+01   6.340905e-02
  1.061309e+00    2.297537e+01   6.356941e-02
  1.063141e+00    2.308352e+01   6.370452e-02
  1.064973e+00    2.312537e+01   6.375180e-02
  1.066804e+00    2.284130e+01   6.335231e-02
  1.068636e+00    2.259152e+01   6.299268e-02
  1.070468e+00    2.246580e+01   6.279517e-02
  1.072299e+00    2.234858e+01   6.261810e-02
  1.074131e+00    2.206052e+01   6.219957e-02
  1.075963e+00    2.188717e+01   6.194013e-02
  1.077795e+00    2.200549e+01   6.208438e-02
  1.079626e+00    2.200539e+01   6.207702e-02
  1.081458e+00    2.185299e+01   6.184955e-02
  1.083290e+00    2.185031e+01   6.183316e-02
  1.085121e+00    2.191532e+01   6.190008e-02
  1.086953e+00    2.186328e+01   6.181253e-02
  1.088785e+00    2.176236e+01   6.165009e-02
  1.090617e+00    2.185623e+01   6.177218e-02
  1.092448e+00    2.198973e+01   6.193791e-02
  1.094280e+00    2.196631e+01   6.189240e-02
  1.096112e+00    2.188807e+01   6.176975e-02
  1.097943e+00    2.212646e+01   6.209001e-02
  1.099775e+00    2.234284e+01   6.237449e-02
  1.101607e+00    2.266479e+01   6.280363e-02
  1.103439e+00    2.304181e+01   6.330880e-02
  1.105270e+00    2.367564e+01   6.415431e-02
  1.107102e+00    2.445191e+01   6.517898e-02
  1.108934e+00    2.502079e+01   6.591937e-02
  1.110765e+00    2.532166e+01   6.630392e-02
  1.112597e+00    2.552313e+01   6.654421e-02
  1.114429e+00    2.516005e+01   6.605177e-02
  1.116261e+00    2.455315e+01   6.522782e-02
  1.118092e+00    2.396633e+01   6.443178e-02
  1.119924e+00    2.351924e+01   6.380969e-02
  1.121756e+00    2.314572e+01   6.327800e-02
  1.123587e+00    2.276414e+01   6.273277e-02
  1.125419e+00    2.232737e+01   6.210822e-02
  1.127251e+00    2.226921e+01   6.201127e-02
  1.129083e+00    2.212692e+01   6.178412e-02
  1.130914e+00    2.204412e+01   6.165106e-02
  1.132746e+00    2.205878e+01   6.164876e-02
  1.134578e+00    2.199879e+01   6.154726e-02
  1.136409e+00    2.204064e+01   6.158137e-02
  1.138241e+00    2.204771e+01   6.157526e-02
  1.140073e+00    2.206117e+01   6.156861e-02
  1.141905e+00    2.205667e+01   6.154776e-02
  1.143736e+00    2.207320e+01   6.154690e-02
  1.145568e+00    2.212514e+01   6.160025e-02
  1.147400e+00    2.205209e+01   6.148423e-02
  1.149231e+00    2.205561e+01   6.146968e-02
  1.151063e+00    2.210748e+01   6.151998e-02
  1.152895e+00    2.202115e+01   6.137370e-02
  1.154726e+00    2.211665e+01   6.149388e-02
  1.156558e+00    2.217043e+01   6.154516e-02
  1.158390e+00    2.224911e+01   6.164414e-02
  1.160222e+00    2.233685e+01   6.172754e-02
  1.162053e+00    2.247752e+01   6.190289e-02
  1.163885e+00    2.253823e+01   6.196593e-02
  1.165717e+00    2.239942e+01   6.176849e-02
  1.167548e+00    2.232897e+01   6.163632e-02
  1.169380e+00    2.247550e+01   6.181872e-02
  1.171212e+00    2.232281e+01   6.158914e-02
  1.173044e+00    2.225299e+01   6.147243e-02
  1.174875e+00    2.233636e+01   6.156037e-02
  1.176707e+00    2.238511e+01   6.160951e-02
  1.178539e+00    2.214073e+01   6.125412e-02
  1.180370e+00    2.194560e+01   6.095585e-02
  1.182202e+00    2.192261e+01   6.090951e-02
  1.184034e+00    2.202444e+01   6.102908e-02
  1.185866e+00    2.201179e+01   6.100913e-02
  1.187697e+00    2.195951e+01   6.092821e-02
  1.189529e+00    2.197974e+01   6.095085e-02
  1.191361e+00    2.194381e+01   6.088756e-02
  1.193192e+00    2.180894e+01   6.068993e-02
  1.195024e+00    2.178578e+01   6.064935e-02
  1.196856e+00    2.180380e+01   6.066622e-02
  1.198688e+00    2.187731e+01   6.075921e-02
  1.200519e+00    2.184696e+01   6.071710e-02
  1.202351e+00    2.186538e+01   6.075452e-02
  1.204183e+00    2.197014e+01   6.090996e-02
  1.206014e+00    2.220064e+01   6.123985e-02
  1.207846e+00    2.228787e+01   6.137298e-02
  1.209678e+00    2.238011e+01   6.151086e-02
  1.211510e+00    2.271153e+01   6.196137e-02
  1.213341e+00    2.310462e+01   6.251832e-02
  1.215173e+00    2.364769e+01   6.325349e-02
  1.217005e+00    2.412460e+01   6.390703e-02
  1.218836e+00    2.426194e+01   6.410046e-02
  1.220668e+00    2.435322e+01   6.422050e-02
  1.222500e+00    2.414209e+01   6.395559e-02
  1.224332e+00    2.371821e+01   6.339772e-02
  1.226163e+00    2.345527e+01   6.304422e-02
  1.227995e+00    2.333609e+01   6.289162e-02
  1.229827e+00    2.314692e+01   6.264192e-02
  1.231658e+00    2.309491e+01   6.256846e-02
  1.233490e+00    2.352924e+01   6.316305e-02
  1.235322e+00    2.418864e+01   6.403308e-02
  1.237154e+00    2.481569e+01   6.486148e-02
  1.238985e+00    2.559729e+01   6.588054e-02
  1.240817e+00    2.617190e+01   6.661812e-02
  1.242649e+00    2.612034e+01   6.655439e-02
  1.244480e+00    2.584047e+01   6.620791e-02
  1.246312e+00    2.551151e+01   6.578598e-02
  1.248144e+00    2.487004e+01   6.494859e-02
  1.249975e+00    2.433879e+01   6.426377e-02
  1.251807e+00    2.384134e+01   6.360112e-02
  1.253639e+00    2.334002e+01   6.293145e-02
  1.255471e+00    2.328076e+01   6.284378e-02
  1.257302e+00    2.347255e+01   6.310977e-02
  1.259134e+00    2.370844e+01   6.341192e-02
  1.260966e+00    2.406549e+01   6.390208e-02
  1.262797e+00    2.455248e+01   6.454436e-02
  1.264629e+00    2.495111e+01   6.505935e-02
  1.266461e+00    2.565174e+01   6.596351e-02
  1.268293e+00    2.646965e+01   6.700690e-02
  1.270124e+00    2.770359e+01   6.854436e-02
  1.271956e+00    2.908089e+01   7.022216e-02
  1.273788e+00    2.994542e+01   7.126966e-02
  1.275619e+00    3.051984e+01   7.193834e-02
  1.277451e+00    3.031708e+01   7.169674e-02
  1.279283e+00    2.951741e+01   7.073821e-02
  1.281115e+00    2.876428e+01   6.983644e-02
  1.282946e+00    2.796385e+01   6.884856e-02
  1.284778e+00    2.729356e+01   6.801799e-02
  1.286610e+00    2.622973e+01   6.668115e-02
  1.288441e+00    2.523190e+01   6.538760e-02
  1.290273e+00    2.421754e+01   6.405271e-02
  1.292105e+00    2.331994e+01   6.285029e-02
  1.293937e+00    2.279693e+01   6.213604e-02
  1.295768e+00    2.249223e+01   6.170449e-02
  1.297600e+00    2.213340e+01   6.120738e-02
  1.299432e+00    2.194094e+01   6.093487e-02
  1.301263e+00    2.184172e+01   6.079456e-02
  1.303095e+00    2.181117e+01   6.074094e-02
  1.304927e+00    2.189006e+01   6.085139e-02
  1.306759e+00    2.205731e+01   6.107804e-02
  1.308590e+00    2.213832e+01   6.117738e-02
  1.310422e+00    2.209876e+01   6.111510e-02
  1.312254e+00    2.221526e+01   6.126864e-02
  1.314085e+00    2.246049e+01   6.160427e-02
  1.315917e+00    2.259437e+01   6.177007e-02
  1.317749e+00    2.255870e+01   6.171962e-02
  1.319581e+00    2.275212e+01   6.197309e-02
  1.321412e+00    2.302280e+01   6.233892e-02
  1.323244e+00    2.283076e+01   6.207109e-02
  1.325076e+00    2.292954e+01   6.219593e-02
  1.326907e+00    2.292043e+01   6.217420e-02
  1.328739e+00    2.309318e+01   6.239782e-02
  1.330571e+00    2.335847e+01   6.274894e-02
  1.332403e+00    2.395297e+01   6.353489e-02
  1.334234e+00    2.444535e+01   6.418123e-02
  1.336066e+00    2.467182e+01   6.446928e-02
  1.337898e+00    2.479813e+01   6.462993e-02
  1.339729e+00    2.465292e+01   6.442703e-02
  1.341561e+00    2.443861e+01   6.414524e-02
  1.343393e+00    2.411030e+01   6.369672e-02
  1.345224e+00    2.393760e+01   6.344928e-02
  1.347056e+00    2.367603e+01   6.309423e-02
  1.348888e+00    2.352854e+01   6.288666e-02
  1.350720e+00    2.318192e+01   6.241764e-02
  1.352551e+00    2.293836e+01   6.207430e-02
  1.354383e+00    2.277811e+01   6.173373e-02
  1.356215e+00    2.257341e+01   6.076525e-02
  1.358046e+00    2.234137e+01   6.017628e-02
  1.359878e+00    2.245485e+01   6.017378e-02
  1.361710e+00    2.258050e+01   6.022256e-02
  1.363542e+00    2.247129e+01   5.996979e-02
  1.365373e+00    2.253098e+01   5.994253e-02
  1.367205e+00    2.265690e+01   6.000829e-02
  1.369037e+00    2.275327e+01   6.005367e-02
  1.370868e+00    2.287350e+01   6.013354e-02
  1.372700e+00    2.339860e+01   6.072543e-02
  1.374532e+00    2.398838e+01   6.140585e-02
  1.376364e+00    2.474557e+01   6.228438e-02
  1.378195e+00    2.562168e+01   6.331991e-02
  1.380027e+00    2.637201e+01   6.415947e-02
  1.381859e+00    2.724808e+01   6.515614e-02
  1.383690e+00    2.766920e+01   6.563573e-02
  1.385522e+00    2.757351e+01   6.551648e-02
  1.387354e+00    2.730568e+01   6.518889e-02
  1.389186e+00    2.713308e+01   6.497278e-02
  1.391017e+00    2.673824e+01   6.448360e-02
  1.392849e+00    2.636642e+01   6.403080e-02
  1.394681e+00    2.610609e+01   6.370145e-02
  1.396512e+00    2.580274e+01   6.331018e-02
  1.398344e+00    2.544216e+01   6.285765e-02
  1.400176e+00    2.530008e+01   6.267750e-02
  1.402008e+00    2.524712e+01   6.259836e-02
  1.403839e+00    2.522386e+01   6.255097e-02
  1.405671e+00    2.510573e+01   6.238968e-02
  1.407503e+00    2.531068e+01   6.263690e-02
  1.409334e+00    2.545771e+01   6.281017e-02
  1.411166e+00    2.563343e+01   6.301471e-02
  1.412998e+00    2.591852e+01   6.334107e-02
  1.414830e+00    2.596793e+01   6.339349e-02
  1.416661e+00    2.625184e+01   6.372534e-02
  1.418493e+00    2.665107e+01   6.420204e-02
  1.420325e+00    2.690347e+01   6.448766e-02
  1.422156e+00    2.709424e+01   6.470210e-02
  1.423988e+00    2.759871e+01   6.529172e-02
  1.425820e+00    2.800030e+01   6.575050e-02
  1.427652e+00    2.839206e+01   6.619539e-02
  1.429483e+00    2.892813e+01   6.679429e-02
  1.431315e+00    2.904621e+01   6.692080e-02
  1.433147e+00    2.941064e+01   6.732577e-02
  1.434978e+00    2.966327e+01   6.759984e-02
  1.436810e+00    3.015063e+01   6.813081e-02
  1.438642e+00    3.061793e+01   6.864027e-02
  1.440473e+00    3.102896e+01   6.908695e-02
  1.442305e+00    3.156964e+01   6.967153e-02
  1.444137e+00    3.201654e+01   7.015285e-02
  1.445969e+00    3.252777e+01   7.069097e-02
  1.447800e+00    3.310551e+01   7.129989e-02
  1.449632e+00    3.366629e+01   7.188748e-02
  1.451464e+00    3.442009e+01   7.266873e-02
  1.453295e+00    3.512209e+01   7.338366e-02
  1.455127e+00    3.587494e+01   7.415088e-02
  1.456959e+00    3.686674e+01   7.515404e-02
  1.458791e+00    3.774386e+01   7.603055e-02
  1.460622e+00    3.851545e+01   7.679207e-02
  1.462454e+00    3.899911e+01   7.724022e-02
  1.464286e+00    3.934449e+01   7.757045e-02
  1.466117e+00    3.951482e+01   7.772142e-02
  1.467949e+00    3.968585e+01   7.787164e-02
  1.469781e+00    3.990476e+01   7.807048e-02
  1.471613e+00    4.011976e+01   7.826100e-02
  1.473444e+00    4.035518e+01   7.847135e-02
  1.475276e+00    4.035003e+01   7.845267e-02
  1.477108e+00    4.058916e+01   7.867318e-02
  1.478939e+00    4.104428e+01   7.910197e-02
  1.480771e+00    4.165739e+01   7.967857e-02
  1.482603e+00    4.209809e+01   8.008850e-02
  1.484435e+00    4.267949e+01   8.063118e-02
  1.486266e+00    4.346000e+01   8.135496e-02
  1.488098e+00    4.400593e+01   8.185029e-02
  1.489930e+00    4.460345e+01   8.239118e-02
  1.491761e+00    4.560276e+01   8.329722e-02
  1.493593e+00    4.693195e+01   8.449061e-02
  1.495425e+00    4.928115e+01   8.655229e-02
  1.497257e+00    5.403091e+01   9.060214e-02
  1.499088e+00    6.370679e+01   9.832867e-02
  1.500920e+00    8.155898e+01   1.112263e-01
  1.502752e+00    1.122614e+02   1.304507e-01
  1.504583e+00    1.601687e+02   1.557930e-01
  1.506415e+00    2.280575e+02   1.858821e-01
  1.508247e+00    3.139549e+02   2.181032e-01
  1.510079e+00    4.094788e+02   2.491232e-01
  1.511910e+00    4.996741e+02   2.752096e-01
  1.513742e+00    5.666008e+02   2.930731e-01
  1.515574e+00    5.951069e+02   3.003626e-01
  1.517405e+00    5.847565e+02   2.977307e-01
  1.519237e+00    5.452864e+02   2.875341e-01
  1.521069e+00    4.907797e+02   2.727557e-01
  1.522901e+00    4.336828e+02   2.564242e-01
  1.524732e+00    3.760202e+02   2.387659e-01
  1.526564e+00    3.165456e+02   2.191029e-01
  1.528396e+00    2.560239e+02   1.970551e-01
  1.530227e+00    1.980762e+02   1.733383e-01
  1.532059e+00    1.471871e+02   1.493977e-01
  1.533891e+00    1.088903e+02   1.284690e-01
  1.535722e+00    8.391137e+01   1.127298e-01
  1.537554e+00    6.949121e+01   1.025424e-01
  1.539386e+00    6.262171e+01   9.731124e-02
  1.541218e+00    5.958377e+01   9.491086e-02
  1.543049e+00    5.773686e+01   9.342214e-02
  1.544881e+00    5.608673e+01   9.207079e-02
  1.546713e+00    5.478230e+01   9.098822e-02
  1.548544e+00    5.324499e+01   8.969533e-02
  1.550376e+00    5.216579e+01   8.877542e-02
  1.552208e+00    5.097293e+01   8.775853e-02
  1.554040e+00    4.953749e+01   8.651065e-02
  1.555871e+00    4.804710e+01   8.519236e-02
  1.557703e+00    4.626505e+01   8.358837e-02
  1.559535e+00    4.503563e+01   8.246671e-02
  1.561366e+00    4.425047e+01   8.173214e-02
  1.563198e+00    4.482861e+01   8.225647e-02
  1.565030e+00    4.645963e+01   8.373184e-02
  1.566862e+00    4.955244e+01   8.645962e-02
  1.568693e+00    5.432088e+01   9.051618e-02
  1.570525e+00    5.967987e+01   9.487353e-02
  1.572357e+00    6.406274e+01   9.831358e-02
  1.574188e+00    6.697769e+01   1.005236e-01
  1.576020e+00    6.733593e+01   1.007849e-01
  1.577852e+00    6.669928e+01   1.003057e-01
  1.579684e+00    6.630867e+01   1.000097e-01
  1.581515e+00    6.654653e+01   1.001837e-01
  1.583347e+00    6.634688e+01   1.000353e-01
  1.585179e+00    6.555637e+01   9.944007e-02
  1.587010e+00    6.276793e+01   9.730458e-02
  1.588842e+00    5.888790e+01   9.425461e-02
  1.590674e+00    5.460886e+01   9.075564e-02
  1.592506e+00    5.103106e+01   8.772233e-02
  1.594337e+00    4.794790e+01   8.502373e-02
  1.596169e+00    4.564516e+01   8.294226e-02
  1.598001e+00    4.326107e+01   8.074112e-02
  1.599832e+00    4.096791e+01   7.856129e-02
  1.601664e+00    3.859024e+01   7.624866e-02
  1.603496e+00    3.669637e+01   7.434597e-02
  1.605328e+00    3.531176e+01   7.292450e-02
  1.607159e+00    3.416233e+01   7.171754e-02
  1.608991e+00    3.351569e+01   7.102719e-02
  1.610823e+00    3.284358e+01   7.030062e-02
  1.612654e+00    3.218987e+01   6.959078e-02
  1.614486e+00    3.165976e+01   6.901225e-02
  1.616318e+00    3.128249e+01   6.858507e-02
  1.618150e+00    3.102350e+01   6.829290e-02
  1.619981e+00    3.062180e+01   6.784411e-02
  1.621813e+00    3.039729e+01   6.758380e-02
  1.623645e+00    3.038446e+01   6.756921e-02
  1.625476e+00    3.021448e+01   6.737992e-02
  1.627308e+00    2.996367e+01   6.709576e-02
  1.629140e+00    2.989377e+01   6.700310e-02
  1.630971e+00    2.974617e+01   6.683350e-02
  1.632803e+00    2.980627e+01   6.688919e-02
  1.634635e+00    2.991075e+01   6.700327e-02
  1.636467e+00    2.979918e+01   6.686116e-02
  1.638298e+00    2.969842e+01   6.674305e-02
  1.640130e+00    2.975378e+01   6.680014e-02
  1.641962e+00    2.956915e+01   6.658437e-02
  1.643793e+00    2.941389e+01   6.640498e-02
  1.645625e+00    2.931564e+01   6.628744e-02
  1.647457e+00    2.940235e+01   6.638297e-02
  1.649289e+00    2.952647e+01   6.651452e-02
  1.651120e+00    2.965767e+01   6.665552e-02
  1.652952e+00    2.942647e+01   6.638835e-02
  1.654784e+00    2.939925e+01   6.634973e-02
  1.656615e+00    2.936591e+01   6.630785e-02
  1.658447e+00    2.927559e+01   6.618859e-02
  1.660279e+00    2.906002e+01   6.593262e-02
  1.662111e+00    2.899734e+01   6.585358e-02
  1.663942e+00    2.889356e+01   6.572836e-02
  1.665774e+00    2.876053e+01   6.557339e-02
  1.667606e+00    2.870949e+01   6.550693e-02
  1.669437e+00    2.880382e+01   6.560871e-02
  1.671269e+00    2.893554e+01   6.574676e-02
  1.673101e+00    2.915291e+01   6.598395e-02
  1.674933e+00    2.926397e+01   6.610179e-02
  1.676764e+00    2.971638e+01   6.660491e-02
  1.678596e+00    2.989009e+01   6.679041e-02
  1.680428e+00    3.014967e+01   6.707603e-02
  1.682259e+00    3.061205e+01   6.757135e-02
  1.684091e+00    3.127027e+01   6.828160e-02
  1.685923e+00    3.225050e+01   6.933285e-02
  1.687755e+00    3.339536e+01   7.054305e-02
  1.689586e+00    3.464357e+01   7.183642e-02
  1.691418e+00    3.593027e+01   7.315367e-02
  1.693250e+00    3.726974e+01   7.449496e-02
  1.695081e+00    3.882660e+01   7.602337e-02
  1.696913e+00    4.146994e+01   7.853837e-02
  1.698745e+00    4.753550e+01   8.405051e-02
  1.700577e+00    6.030069e+01   9.462084e-02
  1.702408e+00    8.232306e+01   1.105370e-01
  1.704240e+00    1.151736e+02   1.307336e-01
  1.706072e+00    1.558132e+02   1.520948e-01
  1.707903e+00    1.952849e+02   1.703260e-01
  1.709735e+00    2.215653e+02   1.814665e-01
  1.711567e+00    2.290930e+02   1.845623e-01
  1.713399e+00    2.187857e+02   1.803662e-01
  1.715230e+00    1.983596e+02   1.717152e-01
  1.717062e+00    1.778714e+02   1.625795e-01
  1.718894e+00    1.624965e+02   1.553656e-01
  1.720725e+00    1.502561e+02   1.494064e-01
  1.722557e+00    1.370461e+02   1.426938e-01
  1.724389e+00    1.198249e+02   1.334433e-01
  1.726220e+00    9.865259e+01   1.210875e-01
  1.728052e+00    7.737479e+01   1.072169e-01
  1.729884e+00    5.944366e+01   9.395307e-02
  1.731716e+00    4.675776e+01   8.328223e-02
  1.733547e+00    3.900233e+01   7.602353e-02
  1.735379e+00    3.485752e+01   7.183828e-02
  1.737211e+00    3.270737e+01   6.957384e-02
  1.739042e+00    3.165639e+01   6.843174e-02
  1.740874e+00    3.063676e+01   6.730717e-02
  1.742706e+00    2.983771e+01   6.641108e-02
  1.744538e+00    2.930687e+01   6.580284e-02
  1.746369e+00    2.914554e+01   6.560436e-02
  1.748201e+00    2.959017e+01   6.608889e-02
  1.750033e+00    2.998702e+01   6.651846e-02
  1.751864e+00    3.032507e+01   6.688193e-02
  1.753696e+00    3.036067e+01   6.691154e-02
  1.755528e+00    3.032376e+01   6.686201e-02
  1.757360e+00    2.980431e+01   6.627637e-02
  1.759191e+00    2.912386e+01   6.550578e-02
  1.761023e+00    2.849853e+01   6.478339e-02
  1.762855e+00    2.792702e+01   6.412250e-02
  1.764686e+00    2.741618e+01   6.352116e-02
  1.766518e+00    2.691341e+01   6.292706e-02
  1.768350e+00    2.632635e+01   6.222565e-02
  1.770182e+00    2.564444e+01   6.140742e-02
  1.772013e+00    2.501370e+01   6.063999e-02
  1.773845e+00    2.429309e+01   5.974894e-02
  1.775677e+00    2.388449e+01   5.922645e-02
  1.777508e+00    2.349400e+01   5.872919e-02
  1.779340e+00    2.334567e+01   5.852988e-02
  1.781172e+00    2.317619e+01   5.830889e-02
  1.783004e+00    2.307540e+01   5.818344e-02
  1.784835e+00    2.302938e+01   5.812546e-02
  1.786667e+00    2.297315e+01   5.805715e-02
  1.788499e+00    2.295523e+01   5.803578e-02
  1.790330e+00    2.293624e+01   5.800843e-02
  1.792162e+00    2.296384e+01   5.804274e-02
  1.793994e+00    2.308876e+01   5.820429e-02
  1.795826e+00    2.341120e+01   5.861312e-02
  1.797657e+00    2.341866e+01   5.862096e-02
  1.799489e+00    2.337048e+01   5.856302e-02
  1.801321e+00    2.322881e+01   5.838858e-02
  1.803152e+00    2.281544e+01   5.786337e-02
  1.804984e+00    2.246435e+01   5.741565e-02
  1.806816e+00    2.226731e+01   5.716196e-02
  1.808648e+00    2.221855e+01   5.709838e-02
  1.810479e+00    2.211404e+01   5.696565e-02
  1.812311e+00    2.177838e+01   5.653225e-02
  1.814143e+00    2.166679e+01   5.638295e-02
  1.815974e+00    2.141914e+01   5.605941e-02
  1.817806e+00    2.140062e+01   5.603627e-02
  1.819638e+00    2.129851e+01   5.590775e-02
  1.821469e+00    2.114579e+01   5.570328e-02
  1.823301e+00    2.114611e+01   5.570146e-02
  1.825133e+00    2.111308e+01   5.565319e-02
  1.826965e+00    2.095225e+01   5.543476e-02
  1.828796e+00    2.086267e+01   5.531476e-02
  1.830628e+00    2.062379e+01   5.499730e-02
  1.832460e+00    2.048817e+01   5.481293e-02
  1.834291e+00    2.058485e+01   5.494301e-02
  1.836123e+00    2.064068e+01   5.501454e-02
  1.837955e+00    2.054576e+01   5.489231e-02
  1.839787e+00    2.043276e+01   5.474066e-02
  1.841618e+00    2.031487e+01   5.458132e-02
  1.843450e+00    2.023680e+01   5.447169e-02
  1.845282e+00    2.022529e+01   5.445212e-02
  1.847113e+00    2.030079e+01   5.455160e-02
  1.848945e+00    2.047153e+01   5.477111e-02
  1.850777e+00    2.073874e+01   5.512553e-02
  1.852609e+00    2.103862e+01   5.551320e-02
  1.854440e+00    2.133448e+01   5.589948e-02
  1.856272e+00    2.154726e+01   5.617978e-02
  1.858104e+00    2.150818e+01   5.613247e-02
  1.859935e+00    2.129955e+01   5.585570e-02
  1.861767e+00    2.118085e+01   5.569937e-02
  1.863599e+00    2.126481e+01   5.580364e-02
  1.865431e+00    2.125764e+01   5.579315e-02
  1.867262e+00    2.112090e+01   5.561123e-02
  1.869094e+00    2.102297e+01   5.548358e-02
  1.870926e+00    2.075894e+01   5.512707e-02
  1.872757e+00    2.046901e+01   5.473980e-02
  1.874589e+00    2.018231e+01   5.435109e-02
  1.876421e+00    1.988382e+01   5.394315e-02
  1.878253e+00    1.945149e+01   5.335182e-02
  1.880084e+00    1.947918e+01   5.338675e-02
  1.881916e+00    1.942361e+01   5.330512e-02
  1.883748e+00    1.921399e+01   5.301734e-02
  1.885579e+00    1.910626e+01   5.286892e-02
  1.887411e+00    1.882119e+01   5.246935e-02
  1.889243e+00    1.867734e+01   5.226190e-02
  1.891075e+00    1.863092e+01   5.219150e-02
  1.892906e+00    1.867394e+01   5.225033e-02
  1.894738e+00    1.882518e+01   5.245404e-02
  1.896570e+00    1.896336e+01   5.264561e-02
  1.898401e+00    1.926682e+01   5.306631e-02
  1.900233e+00    1.939375e+01   5.324063e-02
  1.902065e+00    1.928245e+01   5.308433e-02
  1.903897e+00    1.904852e+01   5.275508e-02
  1.905728e+00    1.891169e+01   5.255512e-02
  1.907560e+00    1.888369e+01   5.251391e-02
  1.909392e+00    1.869100e+01   5.224181e-02
  1.911223e+00    1.870247e+01   5.225269e-02
  1.913055e+00    1.856104e+01   5.204852e-02
  1.914887e+00    1.852628e+01   5.199765e-02
  1.916718e+00    1.831412e+01   5.169082e-02
  1.918550e+00    1.795001e+01   5.117554e-02
  1.920382e+00    1.770502e+01   5.081888e-02
  1.922214e+00    1.756132e+01   5.060606e-02
  1.924045e+00    1.748166e+01   5.048837e-02
  1.925877e+00    1.741837e+01   5.039287e-02
  1.927709e+00    1.729045e+01   5.019831e-02
  1.929540e+00    1.696431e+01   4.972168e-02
  1.931372e+00    1.687185e+01   4.958259e-02
  1.933204e+00    1.693988e+01   4.967379e-02
  1.935036e+00    1.689190e+01   4.959695e-02
  1.936867e+00    1.685610e+01   4.953770e-02
  1.938699e+00    1.695337e+01   4.967779e-02
  1.940531e+00    1.689048e+01   4.958061e-02
  1.942362e+00    1.680623e+01   4.945880e-02
  1.944194e+00    1.673224e+01   4.934216e-02
  1.946026e+00    1.666193e+01   4.923541e-02
  1.947858e+00    1.661595e+01   4.916073e-02
  1.949689e+00    1.661824e+01   4.915914e-02
  1.951521e+00    1.650188e+01   4.898201e-02
  1.953353e+00    1.669289e+01   4.926193e-02
  1.955184e+00    1.675512e+01   4.934786e-02
  1.957016e+00    1.682047e+01   4.943969e-02
  1.958848e+00    1.674174e+01   4.931736e-02
  1.960680e+00    1.662821e+01   4.915630e-02
  1.962511e+00    1.659804e+01   4.912594e-02
  1.964343e+00    1.652301e+01   4.902178e-02
  1.966175e+00    1.643600e+01   4.889043e-02
  1.968006e+00    1.647695e+01   4.896018e-02
  1.969838e+00    1.642479e+01   4.889707e-02
  1.971670e+00    1.636862e+01   4.881276e-02
  1.973502e+00    1.621479e+01   4.858761e-02
  1.975333e+00    1.630522e+01   4.873339e-02
  1.977165e+00    1.629710e+01   4.873287e-02
  1.978997e+00    1.622979e+01   4.862618e-02
  1.980828e+00    1.612823e+01   4.848528e-02
  1.982660e+00    1.614019e+01   4.851259e-02
  1.984492e+00    1.623978e+01   4.866344e-02
  1.986324e+00    1.609487e+01   4.844352e-02
  1.988155e+00    1.619692e+01   4.860904e-02
  1.989987e+00    1.642991e+01   4.896741e-02
  1.991819e+00    1.649054e+01   4.905765e-02
  1.993650e+00    1.657952e+01   4.919080e-02
  1.995482e+00    1.672389e+01   4.941476e-02
  1.997314e+00    1.664110e+01   4.929736e-02
  1.999146e+00    1.649196e+01   4.906998e-02
  2.000977e+00    1.658718e+01   4.921825e-02
  2.002809e+00    1.654390e+01   4.916318e-02
  2.004641e+00    1.655843e+01   4.919232e-02
  2.006472e+00    1.651379e+01   4.912283e-02
  2.008304e+00    1.653027e+01   4.915354e-02
  2.010136e+00    1.651650e+01   4.914493e-02
  2.011967e+00    1.648947e+01   4.911181e-02
  2.013799e+00    1.644212e+01   4.903783e-02
  2.015631e+00    1.653750e+01   4.919029e-02
  2.017463e+00    1.637591e+01   4.895445e-02
  2.019294e+00    1.630894e+01   4.885328e-02
  2.021126e+00    1.622228e+01   4.872292e-02
  2.022958e+00    1.616628e+01   4.864819e-02
  2.024789e+00    1.628783e+01   4.883634e-02
  2.026621e+00    1.628970e+01   4.883826e-02
  2.028453e+00    1.632615e+01   4.888951e-02
  2.030285e+00    1.642616e+01   4.904542e-02
  2.032116e+00    1.640214e+01   4.901295e-02
  2.033948e+00    1.627552e+01   4.882393e-02
  2.035780e+00    1.622841e+01   4.875725e-02
  2.037611e+00    1.636016e+01   4.896113e-02
  2.039443e+00    1.634908e+01   4.895361e-02
  2.041275e+00    1.627428e+01   4.883840e-02
  2.043107e+00    1.615600e+01   4.866200e-02
  2.044938e+00    1.615561e+01   4.866378e-02
  2.046770e+00    1.616677e+01   4.868631e-02
  2.048602e+00    1.605946e+01   4.852220e-02
  2.050433e+00    1.609322e+01   4.857397e-02
  2.052265e+00    1.613480e+01   4.864330e-02
  2.054097e+00    1.625157e+01   4.882516e-02
  2.055929e+00    1.637032e+01   4.900307e-02
  2.057760e+00    1.644187e+01   4.910933e-02
  2.059592e+00    1.636578e+01   4.900335e-02
  2.061424e+00    1.640459e+01   4.906652e-02
  2.063255e+00    1.613360e+01   4.866378e-02
  2.065087e+00    1.609875e+01   4.860583e-02
  2.066919e+00    1.598999e+01   4.844264e-02
  2.068751e+00    1.590060e+01   4.830739e-02
  2.070582e+00    1.585991e+01   4.825004e-02
  2.072414e+00    1.590160e+01   4.830849e-02
  2.074246e+00    1.593219e+01   4.835621e-02
  2.076077e+00    1.585109e+01   4.823481e-02
  2.077909e+00    1.593527e+01   4.837110e-02
  2.079741e+00    1.607121e+01   4.857326e-02
  2.081573e+00    1.644354e+01   4.913405e-02
  2.083404e+00    1.646161e+01   4.916904e-02
  2.085236e+00    1.633135e+01   4.897947e-02
  2.087068e+00    1.621650e+01   4.880354e-02
  2.088899e+00    1.608610e+01   4.860305e-02
  2.090731e+00    1.594234e+01   4.839070e-02
  2.092563e+00    1.588039e+01   4.829876e-02
  2.094395e+00    1.599090e+01   4.846441e-02
  2.096226e+00    1.593625e+01   4.837712e-02
  2.098058e+00    1.589457e+01   4.831738e-02
  2.099890e+00    1.585031e+01   4.825195e-02
  2.101721e+00    1.575936e+01   4.811809e-02
  2.103553e+00    1.584301e+01   4.823928e-02
  2.105385e+00    1.588997e+01   4.830855e-02
  2.107216e+00    1.620584e+01   4.878401e-02
  2.109048e+00    1.686860e+01   4.977182e-02
  2.110880e+00    1.790562e+01   5.128000e-02
  2.112712e+00    1.930499e+01   5.324304e-02
  2.114543e+00    2.092351e+01   5.543146e-02
  2.116375e+00    2.231104e+01   5.724931e-02
  2.118207e+00    2.302012e+01   5.816164e-02
  2.120038e+00    2.315610e+01   5.833686e-02
  2.121870e+00    2.275609e+01   5.783063e-02
  2.123702e+00    2.213781e+01   5.703933e-02
  2.125534e+00    2.150253e+01   5.621428e-02
  2.127365e+00    2.132125e+01   5.597374e-02
  2.129197e+00    2.119914e+01   5.580477e-02
  2.131029e+00    2.114138e+01   5.572919e-02
  2.132860e+00    2.090572e+01   5.542671e-02
  2.134692e+00    2.044768e+01   5.482474e-02
  2.136524e+00    1.963532e+01   5.372442e-02
  2.138356e+00    1.872046e+01   5.245204e-02
  2.140187e+00    1.797343e+01   5.139979e-02
  2.142019e+00    1.737968e+01   5.054174e-02
  2.143851e+00    1.694683e+01   4.991000e-02
  2.145682e+00    1.663043e+01   4.942970e-02
  2.147514e+00    1.648836e+01   4.921397e-02
  2.149346e+00    1.641666e+01   4.910908e-02
  2.151178e+00    1.626969e+01   4.888954e-02
  2.153009e+00    1.630339e+01   4.893912e-02
  2.154841e+00    1.629072e+01   4.891149e-02
  2.156673e+00    1.626956e+01   4.888340e-02
  2.158504e+00    1.623407e+01   4.882919e-02
  2.160336e+00    1.618933e+01   4.876330e-02
  2.162168e+00    1.616829e+01   4.873021e-02
  2.164000e+00    1.599794e+01   4.846729e-02
  2.165831e+00    1.588500e+01   4.829778e-02
  2.167663e+00    1.585368e+01   4.825456e-02
  2.169495e+00    1.574416e+01   4.808781e-02
  2.171326e+00    1.563149e+01   4.790901e-02
  2.173158e+00    1.545230e+01   4.762846e-02
  2.174990e+00    1.544393e+01   4.761997e-02
  2.176822e+00    1.542266e+01   4.758606e-02
  2.178653e+00    1.517742e+01   4.720729e-02
  2.180485e+00    1.509758e+01   4.707770e-02
  2.182317e+00    1.514932e+01   4.715753e-02
  2.184148e+00    1.502347e+01   4.696276e-02
  2.185980e+00    1.487676e+01   4.675003e-02
  2.187812e+00    1.479966e+01   4.664500e-02
  2.189644e+00    1.485087e+01   4.673389e-02
  2.191475e+00    1.481124e+01   4.669445e-02
  2.193307e+00    1.489042e+01   4.683451e-02
  2.195139e+00    1.501490e+01   4.705113e-02
  2.196970e+00    1.500529e+01   4.704975e-02
  2.198802e+00    1.502916e+01   4.709785e-02
  2.200634e+00    1.507503e+01   4.718788e-02
  2.202465e+00    1.504813e+01   4.716444e-02
  2.204297e+00    1.505702e+01   4.719593e-02
  2.206129e+00    1.513432e+01   4.733060e-02
  2.207961e+00    1.505459e+01   4.721623e-02
  2.209792e+00    1.513886e+01   4.736319e-02
  2.211624e+00    1.521633e+01   4.750301e-02
  2.213456e+00    1.534137e+01   4.771264e-02
  2.215287e+00    1.558566e+01   4.810789e-02
  2.217119e+00    1.584378e+01   4.851594e-02
  2.218951e+00    1.592251e+01   4.865361e-02
  2.220783e+00    1.585131e+01   4.856000e-02
  2.222614e+00    1.573134e+01   4.839252e-02
  2.224446e+00    1.576021e+01   4.843297e-02
  2.226278e+00    1.567376e+01   4.830771e-02
  2.228109e+00    1.563870e+01   4.826921e-02
  2.229941e+00    1.567179e+01   4.833589e-02
  2.231773e+00    1.559397e+01   4.823278e-02
  2.233605e+00    1.535763e+01   4.787713e-02
  2.235436e+00    1.541442e+01   4.797277e-02
  2.237268e+00    1.525252e+01   4.773423e-02
  2.239100e+00    1.504284e+01   4.741714e-02
  2.240931e+00    1.497576e+01   4.732462e-02
  2.242763e+00    1.486609e+01   4.716630e-02
  2.244595e+00    1.478530e+01   4.704929e-02
  2.246427e+00    1.473626e+01   4.699389e-02
  2.248258e+00    1.462284e+01   4.683057e-02
  2.250090e+00    1.459954e+01   4.681471e-02
  2.251922e+00    1.463298e+01   4.688776e-02
  2.253753e+00    1.465295e+01   4.694160e-02
  2.255585e+00    1.464343e+01   4.694532e-02
  2.257417e+00    1.450972e+01   4.674798e-02
  2.259249e+00    1.455802e+01   4.684678e-02
  2.261080e+00    1.451707e+01   4.679747e-02
  2.262912e+00    1.453350e+01   4.684481e-02
  2.264744e+00    1.457430e+01   4.692306e-02
  2.266575e+00    1.458983e+01   4.697161e-02
  2.268407e+00    1.447547e+01   4.679786e-02
  2.270239e+00    1.451388e+01   4.687235e-02
  2.272071e+00    1.447017e+01   4.681843e-02
  2.273902e+00    1.455082e+01   4.696582e-02
  2.275734e+00    1.466275e+01   4.716369e-02
  2.277566e+00    1.462155e+01   4.710966e-02
  2.279397e+00    1.472606e+01   4.730003e-02
  2.281229e+00    1.482984e+01   4.748289e-02
  2.283061e+00    1.474678e+01   4.737083e-02
  2.284893e+00    1.475714e+01   4.740369e-02
  2.286724e+00    1.479107e+01   4.747422e-02
  2.288556e+00    1.475011e+01   4.742333e-02
  2.290388e+00    1.485983e+01   4.761423e-02
  2.292219e+00    1.504039e+01   4.792232e-02
  2.294051e+00    1.503513e+01   4.792703e-02
  2.295883e+00    1.505641e+01   4.798082e-02
  2.297714e+00    1.498705e+01   4.788482e-02
  2.299546e+00    1.500797e+01   4.793558e-02
  2.301378e+00    1.497038e+01   4.788936e-02
  2.303210e+00    1.502964e+01   4.800531e-02
  2.305041e+00    1.495539e+01   4.789971e-02
  2.306873e+00    1.505213e+01   4.807460e-02
  2.308705e+00    1.500640e+01   4.801401e-02
  2.310536e+00    1.492955e+01   4.790756e-02
  2.312368e+00    1.491141e+01   4.789059e-02
  2.314200e+00    1.470676e+01   4.757757e-02
  2.316032e+00    1.458394e+01   4.739369e-02
  2.317863e+00    1.460692e+01   4.744442e-02
  2.319695e+00    1.468324e+01   4.757482e-02
  2.321527e+00    1.469610e+01   4.760792e-02
  2.323358e+00    1.477027e+01   4.774077e-02
  2.325190e+00    1.470320e+01   4.764624e-02
  2.327022e+00    1.466136e+01   4.759368e-02
  2.328854e+00    1.460902e+01   4.751860e-02
  2.330685e+00    1.454145e+01   4.742776e-02
  2.332517e+00    1.463267e+01   4.758568e-02
  2.334349e+00    1.444166e+01   4.729278e-02
  2.336180e+00    1.440617e+01   4.724494e-02
  2.338012e+00    1.455446e+01   4.750638e-02
  2.339844e+00    1.462302e+01   4.762905e-02
  2.341676e+00    1.463573e+01   4.766116e-02
  2.343507e+00    1.453530e+01   4.750999e-02
  2.345339e+00    1.445735e+01   4.739697e-02
  2.347171e+00    1.452526e+01   4.751995e-02
  2.349002e+00    1.466104e+01   4.775818e-02
  2.350834e+00    1.448989e+01   4.749055e-02
  2.352666e+00    1.446161e+01   4.745504e-02
  2.354498e+00    1.449604e+01   4.752601e-02
  2.356329e+00    1.459904e+01   4.770764e-02
  2.358161e+00    1.454675e+01   4.763644e-02
  2.359993e+00    1.461111e+01   4.775249e-02
  2.361824e+00    1.463052e+01   4.779773e-02
  2.363656e+00    1.457696e+01   4.771937e-02
  2.365488e+00    1.456186e+01   4.770982e-02
  2.367320e+00    1.447800e+01   4.758538e-02
  2.369151e+00    1.456802e+01   4.774399e-02
  2.370983e+00    1.478198e+01   4.810513e-02
  2.372815e+00    1.494959e+01   4.838681e-02
  2.374646e+00    1.529627e+01   4.894570e-02
  2.376478e+00    1.545594e+01   4.921754e-02
  2.378310e+00    1.562076e+01   4.949327e-02
  2.380142e+00    1.572785e+01   4.967644e-02
  2.381973e+00    1.557689e+01   4.944284e-02
  2.383805e+00    1.528071e+01   4.898615e-02
  2.385637e+00    1.514330e+01   4.877158e-02
  2.387468e+00    1.510788e+01   4.873041e-02
  2.389300e+00    1.512695e+01   4.876662e-02
  2.391132e+00    1.518657e+01   4.887594e-02
  2.392963e+00    1.516402e+01   4.885061e-02
  2.394795e+00    1.514894e+01   4.884115e-02
  2.396627e+00    1.516888e+01   4.888467e-02
  2.398459e+00    1.500206e+01   4.862498e-02
  2.400290e+00    1.487130e+01   4.842553e-02
  2.402122e+00    1.470628e+01   4.816192e-02
  2.403954e+00    1.479820e+01   4.832515e-02
  2.405785e+00    1.469507e+01   4.816466e-02
  2.407617e+00    1.465044e+01   4.810704e-02
  2.409449e+00    1.473001e+01   4.824435e-02
  2.411281e+00    1.463606e+01   4.810310e-02
  2.413112e+00    1.469027e+01   4.820189e-02
  2.414944e+00    1.474957e+01   4.830860e-02
  2.416776e+00    1.488454e+01   4.854008e-02
  2.418607e+00    1.501914e+01   4.876736e-02
  2.420439e+00    1.507792e+01   4.887132e-02
  2.422271e+00    1.525371e+01   4.916267e-02
  2.424103e+00    1.533193e+01   4.930477e-02
  2.425934e+00    1.532919e+01   4.930637e-02
  2.427766e+00    1.541426e+01   4.946019e-02
  2.429598e+00    1.529777e+01   4.927659e-02
  2.431429e+00    1.532709e+01   4.933960e-02
  2.433261e+00    1.522191e+01   4.916545e-02
  2.435093e+00    1.512036e+01   4.900750e-02
  2.436925e+00    1.499704e+01   4.881722e-02
  2.438756e+00    1.501308e+01   4.885214e-02
  2.440588e+00    1.503058e+01   4.889243e-02
  2.442420e+00    1.518532e+01   4.914877e-02
  2.444251e+00    1.516617e+01   4.913519e-02
  2.446083e+00    1.513391e+01   4.908849e-02
  2.447915e+00    1.523267e+01   4.926228e-02
  2.449747e+00    1.514558e+01   4.912969e-02
  2.451578e+00    1.505691e+01   4.899650e-02
  2.453410e+00    1.509644e+01   4.906888e-02
  2.455242e+00    1.513260e+01   4.913292e-02
  2.457073e+00    1.496042e+01   4.886404e-02
  2.458905e+00    1.502705e+01   4.897897e-02
  2.460737e+00    1.506194e+01   4.904706e-02
  2.462569e+00    1.510869e+01   4.912922e-02
  2.464400e+00    1.527420e+01   4.940679e-02
  2.466232e+00    1.532177e+01   4.949302e-02
  2.468064e+00    1.538180e+01   4.959783e-02
  2.469895e+00    1.559386e+01   4.995057e-02
  2.471727e+00    1.578940e+01   5.026934e-02
  2.473559e+00    1.598629e+01   5.059586e-02
  2.475391e+00    1.622398e+01   5.097394e-02
  2.477222e+00    1.678162e+01   5.185025e-02
  2.479054e+00    1.766185e+01   5.319732e-02
  2.480886e+00    1.942875e+01   5.579815e-02
  2.482717e+00    2.217884e+01   5.962560e-02
  2.484549e+00    2.599639e+01   6.455904e-02
  2.486381e+00    3.046670e+01   6.990998e-02
  2.488212e+00    3.418626e+01   7.406728e-02
  2.490044e+00    3.645473e+01   7.651307e-02
  2.491876e+00    3.635891e+01   7.642787e-02
  2.493708e+00    3.418975e+01   7.412829e-02
  2.495539e+00    3.110664e+01   7.072062e-02
  2.497371e+00    2.843194e+01   6.762314e-02
  2.499203e+00    2.667546e+01   6.552733e-02
  2.501034e+00    2.634134e+01   6.514060e-02
  2.502866e+00    2.676974e+01   6.569564e-02
  2.504698e+00    2.715533e+01   6.619735e-02
  2.506530e+00    2.701948e+01   6.605870e-02
  2.508361e+00    2.600420e+01   6.484001e-02
  2.510193e+00    2.410644e+01   6.245482e-02
  2.512025e+00    2.214437e+01   5.988273e-02
  2.513856e+00    2.043425e+01   5.754953e-02
  2.515688e+00    1.891013e+01   5.537802e-02
  2.517520e+00    1.785077e+01   5.382804e-02
  2.519352e+00    1.704098e+01   5.260776e-02
  2.521183e+00    1.658370e+01   5.191937e-02
  2.523015e+00    1.623042e+01   5.138640e-02
  2.524847e+00    1.597335e+01   5.099274e-02
  2.526678e+00    1.581768e+01   5.076456e-02
  2.528510e+00    1.584057e+01   5.081947e-02
  2.530342e+00    1.570413e+01   5.062437e-02
  2.532174e+00    1.578179e+01   5.076169e-02
  2.534005e+00    1.595343e+01   5.105812e-02
  2.535837e+00    1.593303e+01   5.104429e-02
  2.537669e+00    1.601547e+01   5.119109e-02
  2.539500e+00    1.617890e+01   5.147874e-02
  2.541332e+00    1.619236e+01   5.151203e-02
  2.543164e+00    1.593517e+01   5.112387e-02
  2.544996e+00    1.561613e+01   5.063660e-02
  2.546827e+00    1.553943e+01   5.054815e-02
  2.548659e+00    1.553222e+01   5.057097e-02
  2.550491e+00    1.561506e+01   5.073913e-02
  2.552322e+00    1.563862e+01   5.081404e-02
  2.554154e+00    1.565377e+01   5.087341e-02
  2.555986e+00    1.573821e+01   5.104228e-02
  2.557818e+00    1.576198e+01   5.111268e-02
  2.559649e+00    1.554871e+01   5.079899e-02
  2.561481e+00    1.551724e+01   5.077934e-02
  2.563313e+00    1.548915e+01   5.076852e-02
  2.565144e+00    1.541051e+01   5.067264e-02
  2.566976e+00    1.545213e+01   5.077073e-02
  2.568808e+00    1.551950e+01   5.091165e-02
  2.570640e+00    1.554995e+01   5.099215e-02
  2.572471e+00    1.560606e+01   5.111301e-02
  2.574303e+00    1.561120e+01   5.115224e-02
  2.576135e+00    1.550589e+01   5.101092e-02
  2.577966e+00    1.555908e+01   5.112394e-02
  2.579798e+00    1.556208e+01   5.116140e-02
  2.581630e+00    1.568943e+01   5.140216e-02
  2.583461e+00    1.576466e+01   5.155747e-02
  2.585293e+00    1.575115e+01   5.156942e-02
  2.587125e+00    1.557395e+01   5.130583e-02
  2.588957e+00    1.562807e+01   5.142401e-02
  2.590788e+00    1.578519e+01   5.171294e-02
  2.592620e+00    1.570116e+01   5.160386e-02
  2.594452e+00    1.560028e+01   5.147063e-02
  2.596283e+00    1.575021e+01   5.174553e-02
  2.598115e+00    1.592025e+01   5.205701e-02
  2.599947e+00    1.605824e+01   5.231189e-02
  2.601779e+00    1.610640e+01   5.241969e-02
  2.603610e+00    1.620360e+01   5.260041e-02
  2.605442e+00    1.607176e+01   5.241254e-02
  2.607274e+00    1.604404e+01   5.239621e-02
  2.609105e+00    1.597618e+01   5.231494e-02
  2.610937e+00    1.593772e+01   5.228565e-02
  2.612769e+00    1.608263e+01   5.254796e-02
  2.614601e+00    1.617835e+01   5.273357e-02
  2.616432e+00    1.638493e+01   5.309796e-02
  2.618264e+00    1.659385e+01   5.346513e-02
  2.620096e+00    1.676891e+01   5.377694e-02
  2.621927e+00    1.675175e+01   5.377877e-02
  2.623759e+00    1.690998e+01   5.405338e-02
  2.625591e+00    1.698245e+01   5.419785e-02
  2.627423e+00    1.710296e+01   5.442324e-02
  2.629254e+00    1.750043e+01   5.507724e-02
  2.631086e+00    1.816114e+01   5.614120e-02
  2.632918e+00    1.885395e+01   5.723064e-02
  2.634749e+00    1.939782e+01   5.808245e-02
  2.636581e+00    1.982002e+01   5.873743e-02
  2.638413e+00    1.987536e+01   5.884054e-02
  2.640245e+00    1.941160e+01   5.818221e-02
  2.642076e+00    1.866553e+01   5.708058e-02
  2.643908e+00    1.827421e+01   5.650884e-02
  2.645740e+00    1.799285e+01   5.609885e-02
  2.647571e+00    1.807610e+01   5.625901e-02
  2.649403e+00    1.822575e+01   5.651634e-02
  2.651235e+00    1.843022e+01   5.685847e-02
  2.653067e+00    1.879143e+01   5.744789e-02
  2.654898e+00    1.898981e+01   5.777692e-02
  2.656730e+00    1.896886e+01   5.777492e-02
  2.658562e+00    1.918859e+01   5.813752e-02
  2.660393e+00    1.942156e+01   5.851575e-02
  2.662225e+00    1.960441e+01   5.881892e-02
  2.664057e+00    1.987770e+01   5.925914e-02
  2.665889e+00    2.016270e+01   5.971068e-02
  2.667720e+00    2.024148e+01   5.985274e-02
  2.669552e+00    2.001907e+01   5.955862e-02
  2.671384e+00    1.949924e+01   5.880642e-02
  2.673215e+00    1.914859e+01   5.830314e-02
  2.675047e+00    1.885708e+01   5.787372e-02
  2.676879e+00    1.876551e+01   5.775933e-02
  2.678710e+00    1.888735e+01   5.797745e-02
  2.680542e+00    1.910283e+01   5.833110e-02
  2.682374e+00    1.904708e+01   5.827452e-02
  2.684206e+00    1.896997e+01   5.818219e-02
  2.686037e+00    1.877567e+01   5.791028e-02
  2.687869e+00    1.850216e+01   5.751092e-02
  2.689701e+00    1.829382e+01   5.721173e-02
  2.691532e+00    1.823893e+01   5.715634e-02
  2.693364e+00    1.818825e+01   5.710087e-02
  2.695196e+00    1.858319e+01   5.774418e-02
  2.697028e+00    1.893503e+01   5.831355e-02
  2.698859e+00    1.959853e+01   5.935074e-02
  2.700691e+00    2.044578e+01   6.066070e-02
  2.702523e+00    2.133800e+01   6.203870e-02
  2.704354e+00    2.231703e+01   6.351656e-02
  2.706186e+00    2.322691e+01   6.486809e-02
  2.708018e+00    2.360531e+01   6.546655e-02
  2.709850e+00    2.350821e+01   6.539847e-02
  2.711681e+00    2.298238e+01   6.473550e-02
  2.713513e+00    2.236168e+01   6.391063e-02
  2.715345e+00    2.172900e+01   6.306065e-02
  2.717176e+00    2.117165e+01   6.231291e-02
  2.719008e+00    2.079884e+01   6.182150e-02
  2.720840e+00    2.075836e+01   6.182531e-02
  2.722672e+00    2.090161e+01   6.209332e-02
  2.724503e+00    2.113969e+01   6.250737e-02
  2.726335e+00    2.119665e+01   6.265007e-02
  2.728167e+00    2.114225e+01   6.263017e-02
  2.729998e+00    2.110782e+01   6.264105e-02
  2.731830e+00    2.100609e+01   6.254788e-02
  2.733662e+00    2.083681e+01   6.235537e-02
  2.735494e+00    2.066019e+01   6.214707e-02
  2.737325e+00    2.042880e+01   6.185674e-02
  2.739157e+00    2.005776e+01   6.134937e-02
  2.740989e+00    1.981831e+01   6.103388e-02
  2.742820e+00    1.947931e+01   6.056829e-02
  2.744652e+00    1.916989e+01   6.013620e-02
  2.746484e+00    1.912339e+01   6.011899e-02
  2.748316e+00    1.890381e+01   5.982359e-02
  2.750147e+00    1.863944e+01   5.945648e-02
  2.751979e+00    1.858767e+01   5.942524e-02
  2.753811e+00    1.839898e+01   5.917425e-02
  2.755642e+00    1.826949e+01   5.906669e-02
  2.757474e+00    1.800302e+01   5.872665e-02
  2.759306e+00    1.790347e+01   5.866603e-02
  2.761138e+00    1.772505e+01   5.846188e-02
  2.762969e+00    1.766993e+01   5.844158e-02
  2.764801e+00    1.725232e+01   5.784160e-02
  2.766633e+00    1.704225e+01   5.757957e-02
  2.768464e+00    1.706267e+01   5.770799e-02
  2.770296e+00    1.699328e+01   5.767213e-02
  2.772128e+00    1.690534e+01   5.759098e-02
  2.773959e+00    1.678101e+01   5.746708e-02
  2.775791e+00    1.659550e+01   5.723614e-02
  2.777623e+00    1.651157e+01   5.718126e-02
  2.779455e+00    1.642940e+01   5.711613e-02
  2.781286e+00    1.636321e+01   5.706627e-02
  2.783118e+00    1.629883e+01   5.703777e-02
  2.784950e+00    1.615355e+01   5.686536e-02
  2.786781e+00    1.620843e+01   5.704670e-02
  2.788613e+00    1.614589e+01   5.701881e-02
  2.790445e+00    1.623379e+01   5.724212e-02
  2.792277e+00    1.626015e+01   5.735427e-02
  2.794108e+00    1.614911e+01   5.724087e-02
  2.795940e+00    1.610079e+01   5.723164e-02
  2.797772e+00    1.621343e+01   5.751101e-02
  2.799603e+00    1.642323e+01   5.796016e-02
  2.801435e+00    1.668177e+01   5.847293e-02
  2.803267e+00    1.678621e+01   5.873616e-02
  2.805099e+00    1.703737e+01   5.925204e-02
  2.806930e+00    1.718845e+01   5.959671e-02
  2.808762e+00    1.723373e+01   5.975246e-02
  2.810594e+00    1.744794e+01   6.019951e-02
  2.812425e+00    1.756453e+01   6.046281e-02
  2.814257e+00    1.744991e+01   6.033747e-02
  2.816089e+00    1.745259e+01   6.042494e-02
  2.817921e+00    1.760397e+01   6.076121e-02
  2.819752e+00    1.741428e+01   6.051240e-02
  2.821584e+00    1.743320e+01   6.062566e-02
  2.823416e+00    1.740944e+01   6.064599e-02
  2.825247e+00    1.759975e+01   6.104458e-02
  2.827079e+00    1.766777e+01   6.124199e-02
  2.828911e+00    1.771637e+01   6.140356e-02
  2.830743e+00    1.775744e+01   6.155248e-02
  2.832574e+00    1.763133e+01   6.140762e-02
  2.834406e+00    1.774416e+01   6.168211e-02
  2.836238e+00    1.782394e+01   6.187543e-02
  2.838069e+00    1.787147e+01   6.202776e-02
  2.839901e+00    1.786838e+01   6.209865e-02
  2.841733e+00    1.787444e+01   6.218432e-02
  2.843565e+00    1.791132e+01   6.232168e-02
  2.845396e+00    1.792233e+01   6.241588e-02
  2.847228e+00    1.782179e+01   6.231532e-02
  2.849060e+00    1.807522e+01   6.280636e-02
  2.850891e+00    1.873795e+01   6.402663e-02
  2.852723e+00    1.968774e+01   6.570729e-02
  2.854555e+00    2.136437e+01   6.853002e-02
  2.856387e+00    2.355462e+01   7.204710e-02
  2.858218e+00    2.600360e+01   7.578265e-02
  2.860050e+00    2.824138e+01   7.906861e-02
  2.861882e+00    3.014443e+01   8.175173e-02
  2.863713e+00    3.086222e+01   8.281634e-02
  2.865545e+00    3.106519e+01   8.318898e-02
  2.867377e+00    3.036998e+01   8.234149e-02
  2.869208e+00    2.932535e+01   8.101229e-02
  2.871040e+00    2.829541e+01   7.966550e-02
  2.872872e+00    2.737619e+01   7.845154e-02
  2.874704e+00    2.683451e+01   7.773381e-02
  2.876535e+00    2.646527e+01   7.727976e-02
  2.878367e+00    2.611322e+01   7.685272e-02
  2.880199e+00    2.602342e+01   7.680301e-02
  2.882030e+00    2.563909e+01   7.632448e-02
  2.883862e+00    2.503669e+01   7.550373e-02
  2.885694e+00    2.412066e+01   7.418569e-02
  2.887526e+00    2.326017e+01   7.298225e-02
  2.889357e+00    2.239277e+01   7.179897e-02
  2.891189e+00    2.164989e+01   7.078493e-02
  2.893021e+00    2.060074e+01   6.921955e-02
  2.894852e+00    1.992887e+01   6.825029e-02
  2.896684e+00    1.948664e+01   6.765396e-02
  2.898516e+00    1.891163e+01   6.679677e-02
  2.900348e+00    1.855074e+01   6.630857e-02
  2.902179e+00    1.860524e+01   6.655614e-02
  2.904011e+00    1.856323e+01   6.662906e-02
  2.905843e+00    1.861556e+01   6.687406e-02
  2.907674e+00    1.859774e+01   6.698519e-02
  2.909506e+00    1.859896e+01   6.713083e-02
  2.911338e+00    1.834995e+01   6.682177e-02
  2.913170e+00    1.820965e+01   6.670544e-02
  2.915001e+00    1.810404e+01   6.664058e-02
  2.916833e+00    1.803392e+01   6.664993e-02
  2.918665e+00    1.775129e+01   6.625762e-02
  2.920496e+00    1.766481e+01   6.622429e-02
  2.922328e+00    1.784933e+01   6.670522e-02
  2.924160e+00    1.780366e+01   6.674583e-02
  2.925992e+00    1.790361e+01   6.706118e-02
  2.927823e+00    1.792245e+01   6.722953e-02
  2.929655e+00    1.793468e+01   6.737407e-02
  2.931487e+00    1.767697e+01   6.701086e-02
  2.933318e+00    1.762231e+01   6.703171e-02
  2.935150e+00    1.760454e+01   6.712249e-02
  2.936982e+00    1.760363e+01   6.724620e-02
  2.938814e+00    1.766313e+01   6.754688e-02
  2.940645e+00    1.757306e+01   6.756775e-02
  2.942477e+00    1.769081e+01   6.798151e-02
  2.944309e+00    1.759896e+01   6.802459e-02
  2.946140e+00    1.751465e+01   6.804145e-02
  2.947972e+00    1.748112e+01   6.816827e-02
  2.949804e+00    1.750777e+01   6.843412e-02
  2.951636e+00    1.752398e+01   6.863145e-02
  2.953467e+00    1.771340e+01   6.919278e-02
  2.955299e+00    1.762936e+01   6.923646e-02
  2.957131e+00    1.740985e+01   6.897619e-02
  2.958962e+00    1.716935e+01   6.868968e-02
  2.960794e+00    1.687759e+01   6.830022e-02
  2.962626e+00    1.670084e+01   6.811219e-02
  2.964457e+00    1.670969e+01   6.830545e-02
  2.966289e+00    1.681300e+01   6.871335e-02
  2.968121e+00    1.690119e+01   6.906275e-02
  2.969953e+00    1.672534e+01   6.889048e-02
  2.971784e+00    1.668769e+01   6.906896e-02
  2.973616e+00    1.681586e+01   6.956475e-02
  2.975448e+00    1.682523e+01   6.980164e-02
  2.977279e+00    1.670605e+01   6.978425e-02
  2.979111e+00    1.667311e+01   6.996071e-02
  2.980943e+00    1.663181e+01   7.009128e-02
  2.982775e+00    1.688205e+01   7.083272e-02
  2.984606e+00    1.693969e+01   7.116881e-02
  2.986438e+00    1.687215e+01   7.124348e-02
  2.988270e+00    1.701217e+01   7.174884e-02
  2.990101e+00    1.747346e+01   7.293694e-02
  2.991933e+00    1.790584e+01   7.408953e-02
  2.993765e+00    1.852821e+01   7.559028e-02
  2.995597e+00    1.942061e+01   7.762081e-02
  2.997428e+00    2.037806e+01   7.975004e-02
  2.999260e+00    2.172687e+01   8.262665e-02
  3.001092e+00    2.279123e+01   8.486266e-02
  3.002923e+00    2.313830e+01   8.570737e-02
  3.004755e+00    2.286295e+01   8.545360e-02
  3.006587e+00    2.200436e+01   8.410421e-02
  3.008419e+00    2.114467e+01   8.267903e-02
  3.010250e+00    2.017126e+01   8.097980e-02
  3.012082e+00    1.970186e+01   8.027258e-02
  3.013914e+00    1.967588e+01   8.048145e-02
  3.015745e+00    1.999409e+01   8.135000e-02
  3.017577e+00    2.047256e+01   8.254873e-02
  3.019409e+00    2.122570e+01   8.429440e-02
  3.021241e+00    2.198028e+01   8.605291e-02
  3.023072e+00    2.293367e+01   8.811115e-02
  3.024904e+00    2.424695e+01   9.083312e-02
  3.026736e+00    2.497521e+01   9.244468e-02
  3.028567e+00    2.537109e+01   9.347867e-02
  3.030399e+00    2.554245e+01   9.405016e-02
  3.032231e+00    2.462681e+01   9.260388e-02
  3.034063e+00    2.346328e+01   9.062960e-02
  3.035894e+00    2.200248e+01   8.802956e-02
  3.037726e+00    2.068621e+01   8.561493e-02
  3.039558e+00    2.009569e+01   8.460817e-02
  3.041389e+00    1.979267e+01   8.420135e-02
  3.043221e+00    2.007167e+01   8.502425e-02
  3.045053e+00    2.042823e+01   8.601353e-02
  3.046885e+00    2.093885e+01   8.731356e-02
  3.048716e+00    2.146621e+01   8.863977e-02
  3.050548e+00    2.138157e+01   8.870647e-02
  3.052380e+00    2.082894e+01   8.780652e-02
  3.054211e+00    1.987001e+01   8.602073e-02
  3.056043e+00    1.931733e+01   8.504600e-02
  3.057875e+00    1.895528e+01   8.446387e-02
  3.059706e+00    1.861549e+01   8.393222e-02
  3.061538e+00    1.907192e+01   8.526111e-02
  3.063370e+00    2.010683e+01   8.800248e-02
  3.065202e+00    2.112342e+01   9.068415e-02
  3.067033e+00    2.206158e+01   9.314815e-02
  3.068865e+00    2.242252e+01   9.437409e-02
  3.070697e+00    2.217496e+01   9.429882e-02
  3.072528e+00    2.126301e+01   9.280076e-02
  3.074360e+00    2.007788e+01   9.062951e-02
  3.076192e+00    1.898437e+01   8.855666e-02
  3.078024e+00    1.810068e+01   8.698820e-02
  3.079855e+00    1.781728e+01   8.754011e-02
  3.081687e+00    1.783446e+01   8.884211e-02
  3.083519e+00    1.806477e+01   9.057042e-02
  3.085350e+00    1.855861e+01   9.288862e-02
  3.087182e+00    1.873244e+01   9.436066e-02
  3.089014e+00    1.863784e+01   9.515571e-02
  3.090846e+00    1.837255e+01   9.545717e-02
  3.092677e+00    1.785210e+01   9.506043e-02
  3.094509e+00    1.709513e+01   9.394899e-02
  3.096341e+00    1.679371e+01   9.401955e-02
  3.098172e+00    1.639732e+01   9.378971e-02
  3.100004e+00    1.616967e+01   9.402879e-02
  3.101836e+00    1.602595e+01   9.448536e-02
  3.103668e+00    1.603616e+01   9.539090e-02
  3.105499e+00    1.595404e+01   9.604026e-02
  3.107331e+00    1.600888e+01   9.708418e-02
  3.109163e+00    1.577105e+01   9.724158e-02
  3.110994e+00    1.587249e+01   9.843362e-02
  3.112826e+00    1.606654e+01   9.994556e-02
  3.114658e+00    1.620330e+01   1.012664e-01
  3.116490e+00    1.639792e+01   1.028175e-01
  3.118321e+00    1.628347e+01   1.033631e-01
  3.120153e+00    1.632712e+01   1.044331e-01
  3.121985e+00    1.624844e+01   1.051699e-01
  3.123816e+00    1.627446e+01   1.061919e-01
  3.125648e+00    1.630679e+01   1.072578e-01
  3.127480e+00    1.635629e+01   1.084366e-01
  3.129312e+00    1.613592e+01   1.086831e-01
  3.131143e+00    1.613926e+01   1.096885e-01
  3.132975e+00    1.624912e+01   1.137494e-01
  3.134807e+00    1.631614e+01   1.284094e-01
  3.136638e+00    1.642923e+01   1.368764e-01
  3.138470e+00    1.659626e+01   1.428371e-01
  3.140302e+00    1.654724e+01   1.477586e-01
  3.142134e+00    1.595695e+01   1.500360e-01
  3.143965e+00    1.576316e+01   1.541898e-01
  3.145797e+00    1.582526e+01   1.597189e-01
  3.147629e+00    1.606187e+01   1.664006e-01
  3.149460e+00    1.604866e+01   1.721259e-01
  3.151292e+00    1.588951e+01   1.774100e-01
  3.153124e+00    1.557201e+01   1.819355e-01
  3.154955e+00    1.604710e+01   1.920410e-01
  3.156787e+00    1.640934e+01   2.019677e-01
  3.158619e+00    1.605766e+01   2.080573e-01
  3.160451e+00    1.615574e+01   2.186473e-01
  3.162282e+00    1.623005e+01   2.294499e-01
  3.164114e+00    1.614141e+01   2.405575e-01
  3.165946e+00    1.570983e+01   2.515109e-01
  3.167777e+00    1.654261e+01   2.731170e-01
  3.169609e+00    1.620379e+01   2.910295e-01
  3.171441e+00    1.602839e+01   3.110304e-01
  3.173273e+00    1.612068e+01   3.442904e-01
  3.175104e+00    1.615893e+01   3.799800e-01
  3.176936e+00    1.643135e+01   4.449730e-01
  3.178768e+00    1.676116e+01   5.293323e-01
  3.180599e+00    1.570920e+01   7.064153e-01
  3.182431e+00    1.523442e+01   1.278045e+00
  3.184263e+00    1.211405e+01   1.119120e+00
  3.186095e+00    0.000000e+00   0.000000e+00
  3.187926e+00    0.000000e+00   0.000000e+00
  3.189758e+00    0.000000e+00   0.000000e+00
  3.191590e+00    0.000000e+00   0.000000e+00
  3.193421e+00    0.000000e+00   0.000000e+00
  3.195253e+00    0.000000e+00   0.000000e+00
  3.197085e+00    0.000000e+00   0.000000e+00
  3.198917e+00    0.000000e+00   0.000000e+00
  3.200748e+00    0.000000e+00   0.000000e+00
  3.202580e+00    0.000000e+00   0.000000e+00
  3.204412e+00    0.000000e+00   0.000000e+00
  3.206243e+00    0.000000e+00   0.000000e+00
  3.208075e+00    0.000000e+00   0.000000e+00
  3.209907e+00    0.000000e+00   0.000000e+00
  3.211739e+00    0.000000e+00   0.000000e+00
  3.213570e+00    0.000000e+00   0.000000e+00
  3.215402e+00    0.000000e+00   0.000000e+00
  3.217234e+00    0.000000e+00   0.000000e+00
  3.219065e+00    0.000000e+00   0.000000e+00
  3.220897e+00    0.000000e+00   0.000000e+00
  3.222729e+00    0.000000e+00   0.000000e+00
  3.224561e+00    0.000000e+00   0.000000e+00
  3.226392e+00    0.000000e+00   0.000000e+00
  3.228224e+00    0.000000e+00   0.000000e+00
  3.230056e+00    0.000000e+00   0.000000e+00
  3.231887e+00    0.000000e+00   0.000000e+00
  3.233719e+00    0.000000e+00   0.000000e+00
  3.235551e+00    0.000000e+00   0.000000e+00
  3.237383e+00    0.000000e+00   0.000000e+00
  3.239214e+00    0.000000e+00   0.000000e+00
  3.241046e+00    0.000000e+00   0.000000e+00
  3.242878e+00    0.000000e+00   0.000000e+00
  3.244709e+00    0.000000e+00   0.000000e+00
  3.246541e+00    0.000000e+00   0.000000e+00
  3.248373e+00    0.000000e+00   0.000000e+00
  3.250204e+00    0.000000e+00   0.000000e+00
  3.252036e+00    0.000000e+00   0.000000e+00
  3.253868e+00    0.000000e+00   0.000000e+00
  3.255700e+00    0.000000e+00   0.000000e+00
  3.257531e+00    0.000000e+00   0.000000e+00
  3.259363e+00    0.000000e+00   0.000000e+00
  3.261195e+00    0.000000e+00   0.000000e+00
  3.263026e+00    0.000000e+00   0.000000e+00
  3.264858e+00    0.000000e+00   0.000000e+00
  3.266690e+00    0.000000e+00   0.000000e+00
  3.268522e+00    0.000000e+00   0.000000e+00
  3.270353e+00    0.000000e+00   0.000000e+00
  3.272185e+00    0.000000e+00   0.000000e+00
  3.274017e+00    0.000000e+00   0.000000e+00
  3.275848e+00    0.000000e+00   0.000000e+00
  3.277680e+00    0.000000e+00   0.000000e+00
  3.279512e+00    0.000000e+00   0.000000e+00
  3.281344e+00    0.000000e+00   0.000000e+00
  3.283175e+00    0.000000e+00   0.000000e+00
  3.285007e+00    0.000000e+00   0.000000e+00
  3.286839e+00    0.000000e+00   0.000000e+00
  3.288670e+00    0.000000e+00   0.000000e+00
  3.290502e+00    0.000000e+00   0.000000e+00
  3.292334e+00    0.000000e+00   0.000000e+00
  3.294166e+00    0.000000e+00   0.000000e+00
  3.295997e+00    0.000000e+00   0.000000e+00
  3.297829e+00    0.000000e+00   0.000000e+00
  3.299661e+00    0.000000e+00   0.000000e+00
  3.301492e+00    0.000000e+00   0.000000e+00
  3.303324e+00    0.000000e+00   0.000000e+00
  3.305156e+00    0.000000e+00   0.000000e+00
  3.306988e+00    0.000000e+00   0.000000e+00
  3.308819e+00    0.000000e+00   0.000000e+00
  3.310651e+00    0.000000e+00   0.000000e+00
  3.312483e+00    0.000000e+00   0.000000e+00
  3.314314e+00    0.000000e+00   0.000000e+00
  3.316146e+00    0.000000e+00   0.000000e+00
  3.317978e+00    0.000000e+00   0.000000e+00
  3.319810e+00    0.000000e+00   0.000000e+00
  3.321641e+00    0.000000e+00   0.000000e+00
  3.323473e+00    0.000000e+00   0.000000e+00
  3.325305e+00    0.000000e+00   0.000000e+00
  3.327136e+00    0.000000e+00   0.000000e+00
  3.328968e+00    0.000000e+00   0.000000e+00
  3.330800e+00    0.000000e+00   0.000000e+00
  3.332632e+00    0.000000e+00   0.000000e+00
  3.334463e+00    0.000000e+00   0.000000e+00
  3.336295e+00    0.000000e+00   0.000000e+00
  3.338127e+00    0.000000e+00   0.000000e+00
  3.339958e+00    0.000000e+00   0.000000e+00
  3.341790e+00    0.000000e+00   0.000000e+00
  3.343622e+00    0.000000e+00   0.000000e+00
  3.345453e+00    0.000000e+00   0.000000e+00
  3.347285e+00    0.000000e+00   0.000000e+00
  3.349117e+00    0.000000e+00   0.000000e+00
  3.350949e+00    0.000000e+00   0.000000e+00
  3.352780e+00    0.000000e+00   0.000000e+00
  3.354612e+00    0.000000e+00   0.000000e+00
  3.356444e+00    0.000000e+00   0.000000e+00
  3.358275e+00    0.000000e+00   0.000000e+00
  3.360107e+00    0.000000e+00   0.000000e+00
  3.361939e+00    0.000000e+00   0.000000e+00
  3.363771e+00    0.000000e+00   0.000000e+00
  3.365602e+00    0.000000e+00   0.000000e+00
  3.367434e+00    0.000000e+00   0.000000e+00
  3.369266e+00    0.000000e+00   0.000000e+00
  3.371097e+00    0.000000e+00   0.000000e+00
  3.372929e+00    0.000000e+00   0.000000e+00
  3.374761e+00    0.000000e+00   0.000000e+00
  3.376593e+00    0.000000e+00   0.000000e+00
  3.378424e+00    0.000000e+00   0.000000e+00
  3.380256e+00    0.000000e+00   0.000000e+00
  3.382088e+00    0.000000e+00   0.000000e+00
  3.383919e+00    0.000000e+00   0.000000e+00
  3.385751e+00    0.000000e+00   0.000000e+00
  3.387583e+00    0.000000e+00   0.000000e+00
  3.389415e+00    0.000000e+00   0.000000e+00
  3.391246e+00    0.000000e+00   0.000000e+00
  3.393078e+00    0.000000e+00   0.000000e+00
  3.394910e+00    0.000000e+00   0.000000e+00
  3.396741e+00    0.000000e+00   0.000000e+00
  3.398573e+00    0.000000e+00   0.000000e+00
  3.400405e+00    0.000000e+00   0.000000e+00
  3.402237e+00    0.000000e+00   0.000000e+00
  3.404068e+00    0.000000e+00   0.000000e+00
  3.405900e+00    0.000000e+00   0.000000e+00
  3.407732e+00    0.000000e+00   0.000000e+00
  3.409563e+00    0.000000e+00   0.000000e+00
  3.411395e+00    0.000000e+00   0.000000e+00
  3.413227e+00    0.000000e+00   0.000000e+00
  3.415059e+00    0.000000e+00   0.000000e+00
  3.416890e+00    0.000000e+00   0.000000e+00
  3.418722e+00    0.000000e+00   0.000000e+00
  3.420554e+00    0.000000e+00   0.000000e+00
  3.422385e+00    0.000000e+00   0.000000e+00
  3.424217e+00    0.000000e+00   0.000000e+00
  3.426049e+00    0.000000e+00   0.000000e+00
  3.427881e+00    0.000000e+00   0.000000e+00
  3.429712e+00    0.000000e+00   0.000000e+00
  3.431544e+00    0.000000e+00   0.000000e+00
  3.433376e+00    0.000000e+00   0.000000e+00
  3.435207e+00    0.000000e+00   0.000000e+00
  3.437039e+00    0.000000e+00   0.000000e+00
  3.438871e+00    0.000000e+00   0.000000e+00
  3.440702e+00    0.000000e+00   0.000000e+00
  3.442534e+00    0.000000e+00   0.000000e+00
  3.444366e+00    0.000000e+00   0.000000e+00
  3.446198e+00    0.000000e+00   0.000000e+00
  3.448029e+00    0.000000e+00   0.000000e+00
  3.449861e+00    0.000000e+00   0.000000e+00
  3.451693e+00    0.000000e+00   0.000000e+00
  3.453524e+00    0.000000e+00   0.000000e+00
  3.455356e+00    0.000000e+00   0.000000e+00
  3.457188e+00    0.000000e+00   0.000000e+00
  3.459020e+00    0.000000e+00   0.000000e+00
  3.460851e+00    0.000000e+00   0.000000e+00
  3.462683e+00    0.000000e+00   0.000000e+00
  3.464515e+00    0.000000e+00   0.000000e+00
  3.466346e+00    0.000000e+00   0.000000e+00
  3.468178e+00    0.000000e+00   0.000000e+00
  3.470010e+00    0.000000e+00   0.000000e+00
  3.471842e+00    0.000000e+00   0.000000e+00
  3.473673e+00    0.000000e+00   0.000000e+00
  3.475505e+00    0.000000e+00   0.000000e+00
  3.477337e+00    0.000000e+00   0.000000e+00
  3.479168e+00    0.000000e+00   0.000000e+00
  3.481000e+00    0.000000e+00   0.000000e+00
  3.482832e+00    0.000000e+00   0.000000e+00
  3.484664e+00    0.000000e+00   0.000000e+00
  3.486495e+00    0.000000e+00   0.000000e+00
  3.488327e+00    0.000000e+00   0.000000e+00
  3.490159e+00    0.000000e+00   0.000000e+00
  3.491990e+00    0.000000e+00   0.000000e+00
  3.493822e+00    0.000000e+00   0.000000e+00
  3.495654e+00    0.000000e+00   0.000000e+00
  3.497486e+00    0.000000e+00   0.000000e+00
  3.499317e+00    0.000000e+00   0.000000e+00
  3.501149e+00    0.000000e+00   0.000000e+00
  3.502981e+00    0.000000e+00   0.000000e+00
  3.504812e+00    0.000000e+00   0.000000e+00
  3.506644e+00    0.000000e+00   0.000000e+00
  3.508476e+00    0.000000e+00   0.000000e+00
  3.510308e+00    0.000000e+00   0.000000e+00
  3.512139e+00    0.000000e+00   0.000000e+00
  3.513971e+00    0.000000e+00   0.000000e+00
  3.515803e+00    0.000000e+00   0.000000e+00
  3.517634e+00    0.000000e+00   0.000000e+00
  3.519466e+00    0.000000e+00   0.000000e+00
  3.521298e+00    0.000000e+00   0.000000e+00
  3.523130e+00    0.000000e+00   0.000000e+00
  3.524961e+00    0.000000e+00   0.000000e+00
  3.526793e+00    0.000000e+00   0.000000e+00
  3.528625e+00    0.000000e+00   0.000000e+00
  3.530456e+00    0.000000e+00   0.000000e+00
  3.532288e+00    0.000000e+00   0.000000e+00
  3.534120e+00    0.000000e+00   0.000000e+00
  3.535951e+00    0.000000e+00   0.000000e+00
  3.537783e+00    0.000000e+00   0.000000e+00
  3.539615e+00    0.000000e+00   0.000000e+00
  3.541447e+00    0.000000e+00   0.000000e+00
  3.543278e+00    0.000000e+00   0.000000e+00
  3.545110e+00    0.000000e+00   0.000000e+00
  3.546942e+00    0.000000e+00   0.000000e+00
  3.548773e+00    0.000000e+00   0.000000e+00
  3.550605e+00    0.000000e+00   0.000000e+00
  3.552437e+00    0.000000e+00   0.000000e+00
  3.554269e+00    0.000000e+00   0.000000e+00
  3.556100e+00    0.000000e+00   0.000000e+00
  3.557932e+00    0.000000e+00   0.000000e+00
  3.559764e+00    0.000000e+00   0.000000e+00
  3.561595e+00    0.000000e+00   0.000000e+00
  3.563427e+00    0.000000e+00   0.000000e+00
  3.565259e+00    0.000000e+00   0.000000e+00
  3.567091e+00    0.000000e+00   0.000000e+00
  3.568922e+00    0.000000e+00   0.000000e+00
  3.570754e+00    0.000000e+00   0.000000e+00
  3.572586e+00    0.000000e+00   0.000000e+00
  3.574417e+00    0.000000e+00   0.000000e+00
  3.576249e+00    0.000000e+00   0.000000e+00
  3.578081e+00    0.000000e+00   0.000000e+00
  3.579913e+00    0.000000e+00   0.000000e+00
  3.581744e+00    0.000000e+00   0.000000e+00
  3.583576e+00    0.000000e+00   0.000000e+00
  3.585408e+00    0.000000e+00   0.000000e+00
  3.587239e+00    0.000000e+00   0.000000e+00
  3.589071e+00    0.000000e+00   0.000000e+00
  3.590903e+00    0.000000e+00   0.000000e+00
  3.592735e+00    0.000000e+00   0.000000e+00
  3.594566e+00    0.000000e+00   0.000000e+00
  3.596398e+00    0.000000e+00   0.000000e+00
  3.598230e+00    0.000000e+00   0.000000e+00
  3.600061e+00    0.000000e+00   0.000000e+00
  3.601893e+00    0.000000e+00   0.000000e+00
  3.603725e+00    0.000000e+00   0.000000e+00
  3.605557e+00    0.000000e+00   0.000000e+00
  3.607388e+00    0.000000e+00   0.000000e+00
  3.609220e+00    0.000000e+00   0.000000e+00
  3.611052e+00    0.000000e+00   0.000000e+00
  3.612883e+00    0.000000e+00   0.000000e+00
  3.614715e+00    0.000000e+00   0.000000e+00
  3.616547e+00    0.000000e+00   0.000000e+00
  3.618379e+00    0.000000e+00   0.000000e+00
  3.620210e+00    0.000000e+00   0.000000e+00
  3.622042e+00    0.000000e+00   0.000000e+00
  3.623874e+00    0.000000e+00   0.000000e+00
  3.625705e+00    0.000000e+00   0.000000e+00
  3.627537e+00    0.000000e+00   0.000000e+00
  3.629369e+00    0.000000e+00   0.000000e+00
  3.631200e+00    0.000000e+00   0.000000e+00
  3.633032e+00    0.000000e+00   0.000000e+00
  3.634864e+00    0.000000e+00   0.000000e+00
  3.636696e+00    0.000000e+00   0.000000e+00
  3.638527e+00    0.000000e+00   0.000000e+00
  3.640359e+00    0.000000e+00   0.000000e+00
  3.642191e+00    0.000000e+00   0.000000e+00
  3.644022e+00    0.000000e+00   0.000000e+00
  3.645854e+00    0.000000e+00   0.000000e+00
  3.647686e+00    0.000000e+00   0.000000e+00
  3.649518e+00    0.000000e+00   0.000000e+00
  3.651349e+00    0.000000e+00   0.000000e+00
  3.653181e+00    0.000000e+00   0.000000e+00
  3.655013e+00    0.000000e+00   0.000000e+00
  3.656844e+00    0.000000e+00   0.000000e+00
  3.658676e+00    0.000000e+00   0.000000e+00
  3.660508e+00    0.000000e+00   0.000000e+00
  3.662340e+00    0.000000e+00   0.000000e+00
  3.664171e+00    0.000000e+00   0.000000e+00
  3.666003e+00    0.000000e+00   0.000000e+00
  3.667835e+00    0.000000e+00   0.000000e+00
  3.669666e+00    0.000000e+00   0.000000e+00
  3.671498e+00    0.000000e+00   0.000000e+00
  3.673330e+00    0.000000e+00   0.000000e+00
  3.675162e+00    0.000000e+00   0.000000e+00
  3.676993e+00    0.000000e+00   0.000000e+00
  3.678825e+00    0.000000e+00   0.000000e+00
  3.680657e+00    0.000000e+00   0.000000e+00
  3.682488e+00    0.000000e+00   0.000000e+00
  3.684320e+00    0.000000e+00   0.000000e+00
  3.686152e+00    0.000000e+00   0.000000e+00
  3.687984e+00    0.000000e+00   0.000000e+00
  3.689815e+00    0.000000e+00   0.000000e+00
  3.691647e+00    0.000000e+00   0.000000e+00
