# == pyFAI calibration ==
# SplineFile: None
# PixelSize: 1.000e-04, 1.000e-04 m
# PONI: 1.632e-01, 2.045e-01 m
# Distance Sample to Detector: 0.72024876672 m
# Rotations: -0.087266 0.000000 0.000000 rad
# 
# == Fit2d calibration ==
# Distance Sample-beamCenter: 723.000 mm
# Center: x=2675.000, y=1632.000 pix
# Tilt: 5.000 deg  TiltPlanRot: 0.000 deg
# 
# Wavelength: 7.09e-10
# Polarization factor: None
# Normalization factor: None
# --> OT-2015-08-20-Bhag-1800s.rgr
#       q_nm^-1              I           sigma 
  3.125079e-02    1.347923e+04   1.370080e+01
  3.491566e-02    9.534727e+03   7.203065e+00
  3.858053e-02    6.464233e+03   5.020579e+00
  4.224539e-02    4.539345e+03   3.727815e+00
  4.591026e-02    3.260215e+03   2.763637e+00
  4.957513e-02    2.439060e+03   2.049851e+00
  5.323999e-02    1.882659e+03   1.681659e+00
  5.690486e-02    1.497411e+03   1.437702e+00
  6.056973e-02    1.217115e+03   1.247197e+00
  6.423459e-02    1.010342e+03   1.096815e+00
  6.789946e-02    8.633112e+02   9.813040e-01
  7.156433e-02    7.544562e+02   8.884056e-01
  7.522919e-02    6.815726e+02   8.205222e-01
  7.889406e-02    6.299896e+02   7.677983e-01
  8.255893e-02    6.153783e+02   7.391052e-01
  8.622379e-02    6.454613e+02   7.382692e-01
  8.988866e-02    7.670306e+02   7.862900e-01
  9.355353e-02    1.121494e+03   9.295557e-01
  9.721839e-02    2.092463e+03   1.243329e+00
  1.008833e-01    4.234280e+03   1.731345e+00
  1.045481e-01    6.993271e+03   2.180995e+00
  1.082130e-01    7.772502e+03   2.257100e+00
  1.118779e-01    5.498622e+03   1.864026e+00
  1.155427e-01    2.649593e+03   1.270643e+00
  1.192076e-01    1.084148e+03   7.993234e-01
  1.228725e-01    4.973586e+02   5.326200e-01
  1.265373e-01    2.826459e+02   3.951500e-01
  1.302022e-01    1.864828e+02   3.161677e-01
  1.338671e-01    1.367605e+02   2.667773e-01
  1.375319e-01    1.108623e+02   2.367787e-01
  1.411968e-01    9.631017e+01   2.172912e-01
  1.448617e-01    8.730634e+01   2.035567e-01
  1.485265e-01    8.158838e+01   1.941941e-01
  1.521914e-01    7.699032e+01   1.861961e-01
  1.558563e-01    7.378815e+01   1.799805e-01
  1.595211e-01    7.072031e+01   1.740286e-01
  1.631860e-01    6.845259e+01   1.692216e-01
  1.668509e-01    6.703487e+01   1.655003e-01
  1.705157e-01    6.499734e+01   1.610938e-01
  1.741806e-01    6.438808e+01   1.585371e-01
  1.778455e-01    6.329401e+01   1.554571e-01
  1.815103e-01    6.371945e+01   1.543675e-01
  1.851752e-01    6.566958e+01   1.550657e-01
  1.888401e-01    7.012711e+01   1.585996e-01
  1.925049e-01    7.900563e+01   1.666547e-01
  1.961698e-01    9.574244e+01   1.816573e-01
  1.998347e-01    1.337908e+02   2.127246e-01
  2.034995e-01    2.283918e+02   2.752585e-01
  2.071644e-01    4.537509e+02   3.842197e-01
  2.108293e-01    8.232931e+02   5.126369e-01
  2.144941e-01    1.116446e+03   5.915865e-01
  2.181590e-01    1.032086e+03   5.638981e-01
  2.218239e-01    6.669020e+02   4.493320e-01
  2.254887e-01    3.512983e+02   3.233302e-01
  2.291536e-01    1.955805e+02   2.392519e-01
  2.328185e-01    1.320522e+02   1.950384e-01
  2.364833e-01    1.026778e+02   1.706067e-01
  2.401482e-01    8.722099e+01   1.559807e-01
  2.438131e-01    7.610439e+01   1.445440e-01
  2.474779e-01    6.911606e+01   1.366666e-01
  2.511428e-01    6.438786e+01   1.309221e-01
  2.548077e-01    6.144821e+01   1.269328e-01
  2.584725e-01    5.943714e+01   1.239037e-01
  2.621374e-01    5.782702e+01   1.213153e-01
  2.658023e-01    5.704498e+01   1.196199e-01
  2.694671e-01    5.677375e+01   1.185151e-01
  2.731320e-01    5.611357e+01   1.169927e-01
  2.767969e-01    5.609612e+01   1.161366e-01
  2.804617e-01    5.663191e+01   1.158940e-01
  2.841266e-01    5.758763e+01   1.160810e-01
  2.877915e-01    5.913531e+01   1.168774e-01
  2.914563e-01    6.169763e+01   1.186050e-01
  2.951212e-01    6.631786e+01   1.221739e-01
  2.987861e-01    7.310277e+01   1.274516e-01
  3.024509e-01    8.453650e+01   1.362129e-01
  3.061158e-01    1.066544e+02   1.520491e-01
  3.097807e-01    1.554266e+02   1.823992e-01
  3.134455e-01    2.599617e+02   2.344239e-01
  3.171104e-01    4.350157e+02   3.013908e-01
  3.207753e-01    6.103618e+02   3.549056e-01
  3.244401e-01    6.478298e+02   3.634940e-01
  3.281050e-01    4.956922e+02   3.160981e-01
  3.317699e-01    2.924074e+02   2.413740e-01
  3.354347e-01    1.635867e+02   1.795134e-01
  3.390996e-01    1.083659e+02   1.453230e-01
  3.427645e-01    8.644789e+01   1.290956e-01
  3.464293e-01    7.467220e+01   1.193080e-01
  3.500942e-01    6.719918e+01   1.125680e-01
  3.537591e-01    6.237434e+01   1.078642e-01
  3.574239e-01    5.902606e+01   1.043841e-01
  3.610888e-01    5.621326e+01   1.013277e-01
  3.647537e-01    5.494989e+01   9.965167e-02
  3.684185e-01    5.398585e+01   9.825921e-02
  3.720834e-01    5.373697e+01   9.753166e-02
  3.757483e-01    5.399838e+01   9.728356e-02
  3.794131e-01    5.514126e+01   9.780948e-02
  3.830780e-01    5.586800e+01   9.796020e-02
  3.867428e-01    5.717256e+01   9.860891e-02
  3.904077e-01    5.867129e+01   9.941417e-02
  3.940726e-01    5.991431e+01   9.998350e-02
  3.977374e-01    6.118328e+01   1.005549e-01
  4.014023e-01    6.288470e+01   1.014603e-01
  4.050672e-01    6.435160e+01   1.021521e-01
  4.087320e-01    6.654452e+01   1.034009e-01
  4.123969e-01    7.198946e+01   1.070430e-01
  4.160618e-01    8.293687e+01   1.143552e-01
  4.197266e-01    1.073035e+02   1.294762e-01
  4.233915e-01    1.482188e+02   1.514777e-01
  4.270564e-01    1.971889e+02   1.739475e-01
  4.307212e-01    2.290217e+02   1.866311e-01
  4.343861e-01    2.133391e+02   1.793294e-01
  4.380510e-01    1.574879e+02   1.534032e-01
  4.417158e-01    1.041242e+02   1.242010e-01
  4.453807e-01    7.552452e+01   1.053437e-01
  4.490456e-01    6.353626e+01   9.621342e-02
  4.527104e-01    5.804718e+01   9.158036e-02
  4.563753e-01    5.482551e+01   8.863441e-02
  4.600402e-01    5.227512e+01   8.619418e-02
  4.637050e-01    5.028243e+01   8.419629e-02
  4.673699e-01    4.886853e+01   8.266578e-02
  4.710348e-01    4.779977e+01   8.142468e-02
  4.746996e-01    4.662900e+01   8.009717e-02
  4.783645e-01    4.536316e+01   7.868795e-02
  4.820294e-01    4.479826e+01   7.788202e-02
  4.856942e-01    4.413748e+01   7.700148e-02
  4.893591e-01    4.391035e+01   7.650275e-02
  4.930240e-01    4.366015e+01   7.599195e-02
  4.966888e-01    4.370868e+01   7.574760e-02
  5.003537e-01    4.417849e+01   7.586526e-02
  5.040186e-01    4.476329e+01   7.607756e-02
  5.076834e-01    4.542587e+01   7.634858e-02
  5.113483e-01    4.656936e+01   7.701535e-02
  5.150132e-01    4.862878e+01   7.841437e-02
  5.186780e-01    5.223107e+01   8.096396e-02
  5.223429e-01    6.042009e+01   8.675878e-02
  5.260078e-01    7.761762e+01   9.797074e-02
  5.296726e-01    1.045177e+02   1.132735e-01
  5.333375e-01    1.347290e+02   1.281575e-01
  5.370024e-01    1.631652e+02   1.405230e-01
  5.406672e-01    1.719394e+02   1.437331e-01
  5.443321e-01    1.453162e+02   1.316695e-01
  5.479970e-01    1.012509e+02   1.095254e-01
  5.516618e-01    6.884824e+01   9.000292e-02
  5.553267e-01    5.336974e+01   7.897257e-02
  5.589916e-01    4.715599e+01   7.398242e-02
  5.626564e-01    4.399564e+01   7.121827e-02
  5.663213e-01    4.194146e+01   6.930651e-02
  5.699862e-01    4.074816e+01   6.808927e-02
  5.736510e-01    3.954810e+01   6.685481e-02
  5.773159e-01    3.847839e+01   6.572936e-02
  5.809808e-01    3.762618e+01   6.478113e-02
  5.846456e-01    3.686182e+01   6.391558e-02
  5.883105e-01    3.639645e+01   6.330262e-02
  5.919754e-01    3.559794e+01   6.240064e-02
  5.956402e-01    3.537738e+01   6.200575e-02
  5.993051e-01    3.529456e+01   6.173566e-02
  6.029700e-01    3.499210e+01   6.127970e-02
  6.066348e-01    3.498233e+01   6.107611e-02
  6.102997e-01    3.473916e+01   6.067010e-02
  6.139646e-01    3.496793e+01   6.067733e-02
  6.176294e-01    3.500290e+01   6.051476e-02
  6.212943e-01    3.528105e+01   6.057036e-02
  6.249592e-01    3.625504e+01   6.121138e-02
  6.286240e-01    3.893098e+01   6.323432e-02
  6.322889e-01    4.428199e+01   6.723436e-02
  6.359538e-01    5.199061e+01   7.263001e-02
  6.396186e-01    6.008401e+01   7.785240e-02
  6.432835e-01    6.858714e+01   8.292924e-02
  6.469484e-01    7.626423e+01   8.717792e-02
  6.506132e-01    7.465628e+01   8.599423e-02
  6.542781e-01    6.209932e+01   7.820818e-02
  6.579430e-01    4.816224e+01   6.867531e-02
  6.616078e-01    3.935013e+01   6.189307e-02
  6.652727e-01    3.545530e+01   5.858192e-02
  6.689376e-01    3.380368e+01   5.703624e-02
  6.726024e-01    3.287728e+01   5.609484e-02
  6.762673e-01    3.206334e+01   5.523906e-02
  6.799322e-01    3.149502e+01   5.459148e-02
  6.835970e-01    3.115122e+01   5.413960e-02
  6.872619e-01    3.072610e+01   5.361155e-02
  6.909268e-01    3.039157e+01   5.317508e-02
  6.945916e-01    3.019621e+01   5.285766e-02
  6.982565e-01    3.008941e+01   5.262055e-02
  7.019214e-01    3.001004e+01   5.240518e-02
  7.055862e-01    2.974293e+01   5.202863e-02
  7.092511e-01    2.973262e+01   5.188209e-02
  7.129160e-01    3.004456e+01   5.201145e-02
  7.165808e-01    3.011123e+01   5.192683e-02
  7.202457e-01    3.014888e+01   5.182090e-02
  7.239106e-01    3.030938e+01   5.182150e-02
  7.275754e-01    3.070528e+01   5.201865e-02
  7.312403e-01    3.161488e+01   5.264423e-02
  7.349052e-01    3.364368e+01   5.416285e-02
  7.385700e-01    3.807267e+01   5.746511e-02
  7.422349e-01    4.401498e+01   6.162979e-02
  7.458998e-01    4.971078e+01   6.532385e-02
  7.495646e-01    5.471173e+01   6.835614e-02
  7.532295e-01    6.199497e+01   7.256593e-02
  7.568944e-01    6.646777e+01   7.493849e-02
  7.605592e-01    6.116149e+01   7.170422e-02
  7.642241e-01    4.968957e+01   6.446921e-02
  7.678890e-01    3.941058e+01   5.727081e-02
  7.715538e-01    3.396947e+01   5.303707e-02
  7.752187e-01    3.184541e+01   5.122686e-02
  7.788836e-01    3.073071e+01   5.020200e-02
  7.825484e-01    2.995972e+01   4.944154e-02
  7.862133e-01    2.955999e+01   4.898806e-02
  7.898782e-01    2.937708e+01   4.871791e-02
  7.935430e-01    2.883571e+01   4.815294e-02
  7.972079e-01    2.867785e+01   4.790220e-02
  8.008728e-01    2.847801e+01   4.761822e-02
  8.045376e-01    2.810868e+01   4.719525e-02
  8.082025e-01    2.794155e+01   4.693685e-02
  8.118674e-01    2.777594e+01   4.669565e-02
  8.155322e-01    2.774484e+01   4.656724e-02
  8.191971e-01    2.761909e+01   4.635891e-02
  8.228620e-01    2.747725e+01   4.614238e-02
  8.265268e-01    2.735751e+01   4.594267e-02
  8.301917e-01    2.725204e+01   4.575447e-02
  8.338566e-01    2.729628e+01   4.569321e-02
  8.375214e-01    2.745631e+01   4.573108e-02
  8.411863e-01    2.819446e+01   4.624330e-02
  8.448512e-01    2.956000e+01   4.724876e-02
  8.485160e-01    3.149210e+01   4.866211e-02
  8.521809e-01    3.294212e+01   4.966468e-02
  8.558458e-01    3.370917e+01   5.013481e-02
  8.595106e-01    3.554075e+01   5.137094e-02
  8.631755e-01    3.795557e+01   5.309543e-02
  8.668404e-01    3.798786e+01   5.366021e-02
  8.705052e-01    3.506512e+01   5.182811e-02
  8.741701e-01    3.127384e+01   4.911810e-02
  8.778350e-01    2.834051e+01   4.692642e-02
  8.814998e-01    2.690164e+01   4.638702e-02
  8.851647e-01    2.637444e+01   4.638614e-02
  8.888296e-01    2.603861e+01   4.626708e-02
  8.924944e-01    2.583614e+01   4.618507e-02
  8.961593e-01    2.574950e+01   4.618919e-02
  8.998242e-01    2.571410e+01   4.622430e-02
  9.034890e-01    2.549645e+01   4.608324e-02
  9.071539e-01    2.554812e+01   4.617282e-02
  9.108188e-01    2.544204e+01   4.611848e-02
  9.144836e-01    2.555164e+01   4.625716e-02
  9.181485e-01    2.575532e+01   4.646500e-02
  9.218134e-01    2.555072e+01   4.631104e-02
  9.254782e-01    2.574535e+01   4.650549e-02
  9.291431e-01    2.570707e+01   4.648186e-02
  9.328080e-01    2.563814e+01   4.643749e-02
  9.364728e-01    2.557211e+01   4.639176e-02
  9.401377e-01    2.552827e+01   4.636383e-02
  9.438026e-01    2.573166e+01   4.654854e-02
  9.474674e-01    2.655806e+01   4.731101e-02
  9.511323e-01    2.751048e+01   4.817006e-02
  9.547972e-01    2.904075e+01   4.952581e-02
  9.584620e-01    3.018768e+01   5.051852e-02
  9.621269e-01    3.083901e+01   5.108439e-02
  9.657918e-01    3.226051e+01   5.227077e-02
  9.694566e-01    3.452067e+01   5.409678e-02
  9.731215e-01    3.621494e+01   5.558298e-02
  9.767864e-01    3.500757e+01   5.483325e-02
  9.804512e-01    3.171482e+01   5.232899e-02
  9.841161e-01    2.898764e+01   5.013579e-02
  9.877810e-01    2.677626e+01   4.829575e-02
  9.914458e-01    2.578934e+01   4.805442e-02
  9.951107e-01    2.555695e+01   4.807827e-02
  9.987756e-01    2.533826e+01   4.797117e-02
  1.002440e+00    2.548431e+01   4.817550e-02
  1.006105e+00    2.534772e+01   4.809317e-02
  1.009770e+00    2.517558e+01   4.796455e-02
  1.013435e+00    2.523917e+01   4.805270e-02
  1.017100e+00    2.515704e+01   4.799090e-02
  1.020765e+00    2.505852e+01   4.790820e-02
  1.024430e+00    2.483419e+01   4.770146e-02
  1.028094e+00    2.508064e+01   4.790939e-02
  1.031759e+00    2.493727e+01   4.770318e-02
  1.035424e+00    2.503239e+01   4.771976e-02
  1.039089e+00    2.513922e+01   4.775228e-02
  1.042754e+00    2.510481e+01   4.764519e-02
  1.046419e+00    2.519462e+01   4.765940e-02
  1.050084e+00    2.518665e+01   4.757903e-02
  1.053749e+00    2.539022e+01   4.769849e-02
  1.057413e+00    2.571162e+01   4.792596e-02
  1.061078e+00    2.621245e+01   4.831473e-02
  1.064743e+00    2.657766e+01   4.860195e-02
  1.068408e+00    2.677406e+01   4.875692e-02
  1.072073e+00    2.692173e+01   4.887920e-02
  1.075738e+00    2.754361e+01   4.941378e-02
  1.079403e+00    2.832599e+01   5.009307e-02
  1.083067e+00    2.853650e+01   5.024908e-02
  1.086732e+00    2.786161e+01   4.963019e-02
  1.090397e+00    2.719063e+01   4.900510e-02
  1.094062e+00    2.629222e+01   4.816437e-02
  1.097727e+00    2.574209e+01   4.763111e-02
  1.101392e+00    2.565010e+01   4.752140e-02
  1.105057e+00    2.573193e+01   4.756923e-02
  1.108722e+00    2.577252e+01   4.758104e-02
  1.112386e+00    2.581057e+01   4.758931e-02
  1.116051e+00    2.596942e+01   4.770968e-02
  1.119716e+00    2.612389e+01   4.782108e-02
  1.123381e+00    2.625344e+01   4.791306e-02
  1.127046e+00    2.634291e+01   4.796164e-02
  1.130711e+00    2.658665e+01   4.815627e-02
  1.134376e+00    2.694793e+01   4.844764e-02
  1.138040e+00    2.728073e+01   4.871664e-02
  1.141705e+00    2.784545e+01   4.918568e-02
  1.145370e+00    2.794460e+01   4.924066e-02
  1.149035e+00    2.832345e+01   4.953807e-02
  1.152700e+00    2.873516e+01   4.986824e-02
  1.156365e+00    2.914629e+01   5.018450e-02
  1.160030e+00    2.930283e+01   5.028812e-02
  1.163695e+00    2.976500e+01   5.064913e-02
  1.167359e+00    3.007111e+01   5.087486e-02
  1.171024e+00    3.007884e+01   5.084530e-02
  1.174689e+00    2.970710e+01   5.049247e-02
  1.178354e+00    2.937657e+01   5.017762e-02
  1.182019e+00    2.961292e+01   5.034355e-02
  1.185684e+00    3.005660e+01   5.068554e-02
  1.189349e+00    3.036779e+01   5.091282e-02
  1.193013e+00    2.966894e+01   5.028760e-02
  1.196678e+00    2.865194e+01   4.938887e-02
  1.200343e+00    2.749042e+01   4.836286e-02
  1.204008e+00    2.648884e+01   4.745951e-02
  1.207673e+00    2.593173e+01   4.694271e-02
  1.211338e+00    2.566530e+01   4.669275e-02
  1.215003e+00    2.541348e+01   4.647360e-02
  1.218668e+00    2.532659e+01   4.641011e-02
  1.222332e+00    2.538076e+01   4.646990e-02
  1.225997e+00    2.532921e+01   4.643727e-02
  1.229662e+00    2.537818e+01   4.649455e-02
  1.233327e+00    2.541671e+01   4.653911e-02
  1.236992e+00    2.523504e+01   4.638002e-02
  1.240657e+00    2.518848e+01   4.634506e-02
  1.244322e+00    2.528937e+01   4.644341e-02
  1.247986e+00    2.536071e+01   4.651113e-02
  1.251651e+00    2.524794e+01   4.641451e-02
  1.255316e+00    2.525431e+01   4.641961e-02
  1.258981e+00    2.532373e+01   4.648574e-02
  1.262646e+00    2.524203e+01   4.641113e-02
  1.266311e+00    2.507560e+01   4.625887e-02
  1.269976e+00    2.515094e+01   4.632765e-02
  1.273641e+00    2.535562e+01   4.651428e-02
  1.277305e+00    2.535048e+01   4.650067e-02
  1.280970e+00    2.540773e+01   4.655298e-02
  1.284635e+00    2.530110e+01   4.645002e-02
  1.288300e+00    2.525850e+01   4.640357e-02
  1.291965e+00    2.546737e+01   4.659087e-02
  1.295630e+00    2.562098e+01   4.672324e-02
  1.299295e+00    2.573805e+01   4.682340e-02
  1.302959e+00    2.569922e+01   4.677980e-02
  1.306624e+00    2.548978e+01   4.658098e-02
  1.310289e+00    2.554941e+01   4.662389e-02
  1.313954e+00    2.547916e+01   4.655069e-02
  1.317619e+00    2.560824e+01   4.665581e-02
  1.321284e+00    2.547007e+01   4.652008e-02
  1.324949e+00    2.553740e+01   4.657077e-02
  1.328614e+00    2.570971e+01   4.671433e-02
  1.332278e+00    2.579709e+01   4.678468e-02
  1.335943e+00    2.611315e+01   4.705487e-02
  1.339608e+00    2.644231e+01   4.734009e-02
  1.343273e+00    2.701439e+01   4.783105e-02
  1.346938e+00    2.798284e+01   4.866740e-02
  1.350603e+00    2.996363e+01   5.034722e-02
  1.354268e+00    3.333791e+01   5.309142e-02
  1.357932e+00    3.766971e+01   5.641511e-02
  1.361597e+00    4.313144e+01   6.034966e-02
  1.365262e+00    5.044626e+01   6.457489e-02
  1.368927e+00    5.789058e+01   6.853335e-02
  1.372592e+00    6.063588e+01   6.984289e-02
  1.376257e+00    5.892370e+01   6.861800e-02
  1.379922e+00    5.687472e+01   6.721769e-02
  1.383587e+00    5.686519e+01   6.704143e-02
  1.387251e+00    5.841920e+01   6.777837e-02
  1.390916e+00    5.883760e+01   6.788018e-02
  1.394581e+00    5.752836e+01   6.706854e-02
  1.398246e+00    5.664220e+01   6.653281e-02
  1.401911e+00    5.451814e+01   6.524373e-02
  1.405576e+00    4.926232e+01   6.199413e-02
  1.409241e+00    4.303507e+01   5.791663e-02
  1.412905e+00    3.766947e+01   5.416741e-02
  1.416570e+00    3.299285e+01   5.067000e-02
  1.420235e+00    2.968273e+01   4.804103e-02
  1.423900e+00    2.788524e+01   4.654272e-02
  1.427565e+00    2.715758e+01   4.591119e-02
  1.431230e+00    2.700235e+01   4.576316e-02
  1.434895e+00    2.721251e+01   4.592021e-02
  1.438560e+00    2.729181e+01   4.596781e-02
  1.442224e+00    2.716318e+01   4.583851e-02
  1.445889e+00    2.684670e+01   4.555352e-02
  1.449554e+00    2.633424e+01   4.509231e-02
  1.453219e+00    2.605135e+01   4.483058e-02
  1.456884e+00    2.585346e+01   4.463917e-02
  1.460549e+00    2.600830e+01   4.475225e-02
  1.464214e+00    2.648943e+01   4.514622e-02
  1.467878e+00    2.716167e+01   4.569061e-02
  1.471543e+00    2.767160e+01   4.609922e-02
  1.475208e+00    2.779597e+01   4.617636e-02
  1.478873e+00    2.742920e+01   4.585063e-02
  1.482538e+00    2.642742e+01   4.498362e-02
  1.486203e+00    2.574213e+01   4.437437e-02
  1.489868e+00    2.491929e+01   4.364576e-02
  1.493533e+00    2.436620e+01   4.314306e-02
  1.497197e+00    2.418478e+01   4.297129e-02
  1.500862e+00    2.415984e+01   4.293492e-02
  1.504527e+00    2.434159e+01   4.308617e-02
  1.508192e+00    2.451612e+01   4.322845e-02
  1.511857e+00    2.459951e+01   4.328613e-02
  1.515522e+00    2.455400e+01   4.323329e-02
  1.519187e+00    2.443819e+01   4.311440e-02
  1.522851e+00    2.444247e+01   4.310873e-02
  1.526516e+00    2.420184e+01   4.288027e-02
  1.530181e+00    2.389325e+01   4.258909e-02
  1.533846e+00    2.381358e+01   4.250744e-02
  1.537511e+00    2.373978e+01   4.242900e-02
  1.541176e+00    2.394574e+01   4.260144e-02
  1.544841e+00    2.434893e+01   4.294336e-02
  1.548506e+00    2.463111e+01   4.317865e-02
  1.552170e+00    2.527357e+01   4.373307e-02
  1.555835e+00    2.584648e+01   4.422330e-02
  1.559500e+00    2.653729e+01   4.480840e-02
  1.563165e+00    2.704981e+01   4.523443e-02
  1.566830e+00    2.735747e+01   4.548289e-02
  1.570495e+00    2.725069e+01   4.538770e-02
  1.574160e+00    2.745546e+01   4.555266e-02
  1.577824e+00    2.769857e+01   4.575004e-02
  1.581489e+00    2.817289e+01   4.613654e-02
  1.585154e+00    2.839155e+01   4.630912e-02
  1.588819e+00    2.823527e+01   4.617468e-02
  1.592484e+00    2.784520e+01   4.584744e-02
  1.596149e+00    2.744379e+01   4.550651e-02
  1.599814e+00    2.764440e+01   4.566807e-02
  1.603479e+00    2.847998e+01   4.634363e-02
  1.607143e+00    3.038540e+01   4.786086e-02
  1.610808e+00    3.274301e+01   4.967259e-02
  1.614473e+00    3.486573e+01   5.124609e-02
  1.618138e+00    3.680137e+01   5.263959e-02
  1.621803e+00    3.849261e+01   5.382535e-02
  1.625468e+00    3.997742e+01   5.484479e-02
  1.629133e+00    4.217132e+01   5.631251e-02
  1.632797e+00    4.674927e+01   5.927987e-02
  1.636462e+00    5.321304e+01   6.323410e-02
  1.640127e+00    5.778703e+01   6.588943e-02
  1.643792e+00    5.699277e+01   6.541299e-02
  1.647457e+00    5.254587e+01   6.279102e-02
  1.651122e+00    4.713923e+01   5.945286e-02
  1.654787e+00    4.182539e+01   5.599025e-02
  1.658452e+00    3.708281e+01   5.270700e-02
  1.662116e+00    3.367119e+01   5.021286e-02
  1.665781e+00    3.151969e+01   4.856657e-02
  1.669446e+00    3.080463e+01   4.800066e-02
  1.673111e+00    3.091493e+01   4.807111e-02
  1.676776e+00    3.122993e+01   4.830246e-02
  1.680441e+00    3.146735e+01   4.847194e-02
  1.684106e+00    3.105615e+01   4.814240e-02
  1.687770e+00    3.017789e+01   4.744241e-02
  1.691435e+00    2.907907e+01   4.655668e-02
  1.695100e+00    2.786868e+01   4.556537e-02
  1.698765e+00    2.666875e+01   4.456007e-02
  1.702430e+00    2.564186e+01   4.368036e-02
  1.706095e+00    2.502207e+01   4.313585e-02
  1.709760e+00    2.488625e+01   4.300709e-02
  1.713425e+00    2.477164e+01   4.289499e-02
  1.717089e+00    2.473628e+01   4.284849e-02
  1.720754e+00    2.512455e+01   4.316972e-02
  1.724419e+00    2.536905e+01   4.336583e-02
  1.728084e+00    2.558562e+01   4.353589e-02
  1.731749e+00    2.594956e+01   4.382881e-02
  1.735414e+00    2.617229e+01   4.400303e-02
  1.739079e+00    2.634773e+01   4.413479e-02
  1.742743e+00    2.625031e+01   4.403587e-02
  1.746408e+00    2.620498e+01   4.398252e-02
  1.750073e+00    2.607636e+01   4.386036e-02
  1.753738e+00    2.596744e+01   4.375871e-02
  1.757403e+00    2.584899e+01   4.364222e-02
  1.761068e+00    2.569549e+01   4.349645e-02
  1.764733e+00    2.564912e+01   4.344012e-02
  1.768398e+00    2.580214e+01   4.355172e-02
  1.772062e+00    2.598079e+01   4.368542e-02
  1.775727e+00    2.635502e+01   4.398486e-02
  1.779392e+00    2.647307e+01   4.407040e-02
  1.783057e+00    2.640497e+01   4.399639e-02
  1.786722e+00    2.678815e+01   4.429697e-02
  1.790387e+00    2.729683e+01   4.469686e-02
  1.794052e+00    2.786621e+01   4.514509e-02
  1.797716e+00    2.879874e+01   4.588996e-02
  1.801381e+00    3.010542e+01   4.692089e-02
  1.805046e+00    3.194136e+01   4.832933e-02
  1.808711e+00    3.432364e+01   5.009987e-02
  1.812376e+00    3.736777e+01   5.227281e-02
  1.816041e+00    4.079951e+01   5.461944e-02
  1.819706e+00    4.426036e+01   5.688829e-02
  1.823371e+00    4.653340e+01   5.832804e-02
  1.827035e+00    4.748328e+01   5.891679e-02
  1.830700e+00    4.698076e+01   5.859950e-02
  1.834365e+00    4.521243e+01   5.748762e-02
  1.838030e+00    4.246481e+01   5.570577e-02
  1.841695e+00    3.956752e+01   5.376138e-02
  1.845360e+00    3.702789e+01   5.200407e-02
  1.849025e+00    3.499260e+01   5.055005e-02
  1.852689e+00    3.366382e+01   4.958134e-02
  1.856354e+00    3.268915e+01   4.885302e-02
  1.860019e+00    3.228406e+01   4.854314e-02
  1.863684e+00    3.207751e+01   4.838165e-02
  1.867349e+00    3.216787e+01   4.844134e-02
  1.871014e+00    3.198252e+01   4.829821e-02
  1.874679e+00    3.201722e+01   4.832097e-02
  1.878344e+00    3.192969e+01   4.824710e-02
  1.882008e+00    3.169364e+01   4.806376e-02
  1.885673e+00    3.191069e+01   4.821891e-02
  1.889338e+00    3.210551e+01   4.835815e-02
  1.893003e+00    3.252887e+01   4.866975e-02
  1.896668e+00    3.263823e+01   4.874391e-02
  1.900333e+00    3.248440e+01   4.861900e-02
  1.903998e+00    3.249054e+01   4.861728e-02
  1.907662e+00    3.227721e+01   4.844799e-02
  1.911327e+00    3.215799e+01   4.835313e-02
  1.914992e+00    3.267268e+01   4.873254e-02
  1.918657e+00    3.306965e+01   4.901393e-02
  1.922322e+00    3.371953e+01   4.948345e-02
  1.925987e+00    3.448651e+01   5.003417e-02
  1.929652e+00    3.517377e+01   5.052191e-02
  1.933317e+00    3.574639e+01   5.092413e-02
  1.936981e+00    3.628301e+01   5.129567e-02
  1.940646e+00    3.670431e+01   5.158069e-02
  1.944311e+00    3.692413e+01   5.172490e-02
  1.947976e+00    3.719699e+01   5.190278e-02
  1.951641e+00    3.751777e+01   5.211213e-02
  1.955306e+00    3.779734e+01   5.229650e-02
  1.958971e+00    3.763649e+01   5.217750e-02
  1.962635e+00    3.747481e+01   5.205279e-02
  1.966300e+00    3.719448e+01   5.184684e-02
  1.969965e+00    3.649187e+01   5.134288e-02
  1.973630e+00    3.568217e+01   5.076942e-02
  1.977295e+00    3.444897e+01   4.990051e-02
  1.980960e+00    3.320224e+01   4.900162e-02
  1.984625e+00    3.189569e+01   4.803401e-02
  1.988290e+00    3.090872e+01   4.729706e-02
  1.991954e+00    2.994700e+01   4.656167e-02
  1.995619e+00    2.913470e+01   4.593864e-02
  1.999284e+00    2.858575e+01   4.550851e-02
  2.002949e+00    2.817152e+01   4.519434e-02
  2.006614e+00    2.799676e+01   4.505754e-02
  2.010279e+00    2.788101e+01   4.497196e-02
  2.013944e+00    2.773213e+01   4.485529e-02
  2.017608e+00    2.772012e+01   4.485242e-02
  2.021273e+00    2.746666e+01   4.465554e-02
  2.024938e+00    2.739981e+01   4.460782e-02
  2.028603e+00    2.722437e+01   4.446899e-02
  2.032268e+00    2.710037e+01   4.437100e-02
  2.035933e+00    2.695343e+01   4.425933e-02
  2.039598e+00    2.678060e+01   4.411992e-02
  2.043263e+00    2.660213e+01   4.397729e-02
  2.046927e+00    2.637817e+01   4.379300e-02
  2.050592e+00    2.611691e+01   4.358601e-02
  2.054257e+00    2.581415e+01   4.333331e-02
  2.057922e+00    2.542770e+01   4.301064e-02
  2.061587e+00    2.499316e+01   4.264102e-02
  2.065252e+00    2.459055e+01   4.230127e-02
  2.068917e+00    2.410448e+01   4.188109e-02
  2.072581e+00    2.365027e+01   4.149011e-02
  2.076246e+00    2.334478e+01   4.122383e-02
  2.079911e+00    2.330239e+01   4.118734e-02
  2.083576e+00    2.328551e+01   4.117456e-02
  2.087241e+00    2.319976e+01   4.109899e-02
  2.090906e+00    2.320872e+01   4.110922e-02
  2.094571e+00    2.334372e+01   4.122685e-02
  2.098236e+00    2.340036e+01   4.128232e-02
  2.101900e+00    2.330182e+01   4.119075e-02
  2.105565e+00    2.331974e+01   4.121106e-02
  2.109230e+00    2.336421e+01   4.124680e-02
  2.112895e+00    2.351958e+01   4.138526e-02
  2.116560e+00    2.333675e+01   4.122026e-02
  2.120225e+00    2.331610e+01   4.120396e-02
  2.123890e+00    2.328358e+01   4.117696e-02
  2.127554e+00    2.331281e+01   4.119978e-02
  2.131219e+00    2.339756e+01   4.127542e-02
  2.134884e+00    2.324602e+01   4.113635e-02
  2.138549e+00    2.303638e+01   4.095284e-02
  2.142214e+00    2.274281e+01   4.068515e-02
  2.145879e+00    2.256461e+01   4.052682e-02
  2.149544e+00    2.242692e+01   4.040099e-02
  2.153209e+00    2.208204e+01   4.008637e-02
  2.156873e+00    2.179520e+01   3.982507e-02
  2.160538e+00    2.172746e+01   3.975934e-02
  2.164203e+00    2.182327e+01   3.984646e-02
  2.167868e+00    2.183010e+01   3.984691e-02
  2.171533e+00    2.186904e+01   3.988287e-02
  2.175198e+00    2.181558e+01   3.982840e-02
  2.178863e+00    2.145107e+01   3.949350e-02
  2.182527e+00    2.133810e+01   3.938555e-02
  2.186192e+00    2.130331e+01   3.934751e-02
  2.189857e+00    2.135039e+01   3.939315e-02
  2.193522e+00    2.149255e+01   3.951446e-02
  2.197187e+00    2.227121e+01   4.022189e-02
  2.200852e+00    2.293973e+01   4.083951e-02
  2.204517e+00    2.286635e+01   4.080475e-02
  2.208182e+00    2.277997e+01   4.075744e-02
  2.211846e+00    2.299985e+01   4.097553e-02
  2.215511e+00    2.307464e+01   4.107351e-02
  2.219176e+00    2.270144e+01   4.076359e-02
  2.222841e+00    2.223106e+01   4.036424e-02
  2.226506e+00    2.174285e+01   3.994382e-02
  2.230171e+00    2.164166e+01   3.987029e-02
  2.233836e+00    2.148589e+01   3.975225e-02
  2.237500e+00    2.135855e+01   3.964428e-02
  2.241165e+00    2.112973e+01   3.944962e-02
  2.244830e+00    2.097520e+01   3.932550e-02
  2.248495e+00    2.106099e+01   3.942373e-02
  2.252160e+00    2.079718e+01   3.919863e-02
  2.255825e+00    2.064357e+01   3.907877e-02
  2.259490e+00    2.068531e+01   3.914857e-02
  2.263155e+00    2.061349e+01   3.911120e-02
  2.266819e+00    2.070035e+01   3.922457e-02
  2.270484e+00    2.094351e+01   3.948401e-02
  2.274149e+00    2.107384e+01   3.963785e-02
  2.277814e+00    2.140165e+01   3.997572e-02
  2.281479e+00    2.176780e+01   4.033924e-02
  2.285144e+00    2.208038e+01   4.065138e-02
  2.288809e+00    2.227686e+01   4.086103e-02
  2.292473e+00    2.260910e+01   4.119395e-02
  2.296138e+00    2.262639e+01   4.124032e-02
  2.299803e+00    2.292704e+01   4.153891e-02
  2.303468e+00    2.317053e+01   4.178925e-02
  2.307133e+00    2.357288e+01   4.217621e-02
  2.310798e+00    2.438263e+01   4.292282e-02
  2.314463e+00    2.526801e+01   4.372526e-02
  2.318128e+00    2.598865e+01   4.437201e-02
  2.321792e+00    2.660176e+01   4.491973e-02
  2.325457e+00    2.698531e+01   4.526701e-02
  2.329122e+00    2.747930e+01   4.570814e-02
  2.332787e+00    2.788819e+01   4.606273e-02
  2.336452e+00    2.846392e+01   4.656115e-02
  2.340117e+00    2.889152e+01   4.693504e-02
  2.343782e+00    2.923678e+01   4.724159e-02
  2.347446e+00    3.002810e+01   4.790302e-02
  2.351111e+00    3.106815e+01   4.875304e-02
  2.354776e+00    3.157453e+01   4.917581e-02
  2.358441e+00    3.169292e+01   4.929405e-02
  2.362106e+00    3.157762e+01   4.922900e-02
  2.365771e+00    3.182283e+01   4.944608e-02
  2.369436e+00    3.276080e+01   5.019371e-02
  2.373101e+00    3.428728e+01   5.137452e-02
  2.376765e+00    3.540744e+01   5.223229e-02
  2.380430e+00    3.543897e+01   5.228105e-02
  2.384095e+00    3.500122e+01   5.198203e-02
  2.387760e+00    3.423648e+01   5.142126e-02
  2.391425e+00    3.356495e+01   5.093772e-02
  2.395090e+00    3.216877e+01   4.988610e-02
  2.398755e+00    3.031761e+01   4.845129e-02
  2.402419e+00    2.863015e+01   4.710358e-02
  2.406084e+00    2.713670e+01   4.587906e-02
  2.409749e+00    2.583225e+01   4.478235e-02
  2.413414e+00    2.481998e+01   4.391312e-02
  2.417079e+00    2.412981e+01   4.331710e-02
  2.420744e+00    2.374766e+01   4.298968e-02
  2.424409e+00    2.315795e+01   4.247132e-02
  2.428074e+00    2.271275e+01   4.207844e-02
  2.431738e+00    2.252204e+01   4.191610e-02
  2.435403e+00    2.259081e+01   4.199785e-02
  2.439068e+00    2.238745e+01   4.182371e-02
  2.442733e+00    2.213853e+01   4.160608e-02
  2.446398e+00    2.198762e+01   4.146938e-02
  2.450063e+00    2.200882e+01   4.150197e-02
  2.453728e+00    2.206017e+01   4.156598e-02
  2.457392e+00    2.226143e+01   4.177044e-02
  2.461057e+00    2.257580e+01   4.208049e-02
  2.464722e+00    2.316267e+01   4.263729e-02
  2.468387e+00    2.400531e+01   4.342048e-02
  2.472052e+00    2.446925e+01   4.385449e-02
  2.475717e+00    2.477393e+01   4.413903e-02
  2.479382e+00    2.466012e+01   4.405143e-02
  2.483047e+00    2.429073e+01   4.373584e-02
  2.486711e+00    2.401862e+01   4.350333e-02
  2.490376e+00    2.361171e+01   4.314704e-02
  2.494041e+00    2.305000e+01   4.264450e-02
  2.497706e+00    2.275771e+01   4.238523e-02
  2.501371e+00    2.258360e+01   4.223421e-02
  2.505036e+00    2.235977e+01   4.203592e-02
  2.508701e+00    2.221720e+01   4.191647e-02
  2.512365e+00    2.200502e+01   4.174989e-02
  2.516030e+00    2.160042e+01   4.139855e-02
  2.519695e+00    2.112197e+01   4.096631e-02
  2.523360e+00    2.083479e+01   4.071853e-02
  2.527025e+00    2.054801e+01   4.046876e-02
  2.530690e+00    2.039163e+01   4.034456e-02
  2.534355e+00    2.041071e+01   4.039348e-02
  2.538020e+00    2.055920e+01   4.056931e-02
  2.541684e+00    2.104792e+01   4.107949e-02
  2.545349e+00    2.150159e+01   4.155011e-02
  2.549014e+00    2.170500e+01   4.177427e-02
  2.552679e+00    2.209436e+01   4.217581e-02
  2.556344e+00    2.228142e+01   4.240378e-02
  2.560009e+00    2.248467e+01   4.265442e-02
  2.563674e+00    2.238425e+01   4.261696e-02
  2.567338e+00    2.240050e+01   4.268634e-02
  2.571003e+00    2.237957e+01   4.272034e-02
  2.574668e+00    2.214256e+01   4.254806e-02
  2.578333e+00    2.186224e+01   4.233024e-02
  2.581998e+00    2.165485e+01   4.217557e-02
  2.585663e+00    2.133203e+01   4.190952e-02
  2.589328e+00    2.097328e+01   4.160427e-02
  2.592993e+00    2.091628e+01   4.159658e-02
  2.596657e+00    2.088181e+01   4.161242e-02
  2.600322e+00    2.072209e+01   4.149841e-02
  2.603987e+00    2.045803e+01   4.127995e-02
  2.607652e+00    2.022219e+01   4.108954e-02
  2.611317e+00    2.005441e+01   4.096426e-02
  2.614982e+00    1.969364e+01   4.063136e-02
  2.618647e+00    1.947469e+01   4.044878e-02
  2.622311e+00    1.944085e+01   4.045711e-02
  2.625976e+00    1.911550e+01   4.015870e-02
  2.629641e+00    1.931545e+01   4.041241e-02
  2.633306e+00    1.940644e+01   4.054911e-02
  2.636971e+00    1.972559e+01   4.092258e-02
  2.640636e+00    2.010377e+01   4.135640e-02
  2.644301e+00    2.051612e+01   4.182152e-02
  2.647966e+00    2.097574e+01   4.232354e-02
  2.651630e+00    2.160640e+01   4.299656e-02
  2.655295e+00    2.225541e+01   4.368216e-02
  2.658960e+00    2.289418e+01   4.434664e-02
  2.662625e+00    2.316994e+01   4.465580e-02
  2.666290e+00    2.321094e+01   4.473894e-02
  2.669955e+00    2.273393e+01   4.431707e-02
  2.673620e+00    2.212340e+01   4.375793e-02
  2.677284e+00    2.155917e+01   4.323779e-02
  2.680949e+00    2.131692e+01   4.303615e-02
  2.684614e+00    2.099089e+01   4.273907e-02
  2.688279e+00    2.059479e+01   4.237170e-02
  2.691944e+00    2.008673e+01   4.188369e-02
  2.695609e+00    2.021044e+01   4.205129e-02
  2.699274e+00    2.034949e+01   4.223020e-02
  2.702939e+00    2.008626e+01   4.199393e-02
  2.706603e+00    2.012645e+01   4.207446e-02
  2.710268e+00    2.006129e+01   4.204870e-02
  2.713933e+00    2.000982e+01   4.208017e-02
  2.717598e+00    1.995454e+01   4.211220e-02
  2.721263e+00    1.987660e+01   4.211479e-02
  2.724928e+00    1.992362e+01   4.224897e-02
  2.728593e+00    1.981188e+01   4.221483e-02
  2.732257e+00    1.984197e+01   4.232950e-02
  2.735922e+00    2.009407e+01   4.267644e-02
  2.739587e+00    2.061296e+01   4.330850e-02
  2.743252e+00    2.116890e+01   4.397036e-02
  2.746917e+00    2.200002e+01   4.490795e-02
  2.750582e+00    2.269663e+01   4.569730e-02
  2.754247e+00    2.294824e+01   4.603296e-02
  2.757912e+00    2.287712e+01   4.604206e-02
  2.761576e+00    2.277670e+01   4.602208e-02
  2.765241e+00    2.227399e+01   4.564458e-02
  2.768906e+00    2.208488e+01   4.559775e-02
  2.772571e+00    2.200230e+01   4.564255e-02
  2.776236e+00    2.168718e+01   4.545952e-02
  2.779901e+00    2.124483e+01   4.511794e-02
  2.783566e+00    2.087601e+01   4.485909e-02
  2.787230e+00    2.074402e+01   4.484791e-02
  2.790895e+00    2.075241e+01   4.497303e-02
  2.794560e+00    2.098161e+01   4.535508e-02
  2.798225e+00    2.111203e+01   4.561763e-02
  2.801890e+00    2.128147e+01   4.591815e-02
  2.805555e+00    2.173130e+01   4.652785e-02
  2.809220e+00    2.223925e+01   4.718314e-02
  2.812885e+00    2.292257e+01   4.802564e-02
  2.816549e+00    2.390050e+01   4.917262e-02
  2.820214e+00    2.535071e+01   5.076171e-02
  2.823879e+00    2.689584e+01   5.241604e-02
  2.827544e+00    2.820971e+01   5.381914e-02
  2.831209e+00    2.851297e+01   5.423242e-02
  2.834874e+00    2.840757e+01   5.426050e-02
  2.838539e+00    2.816095e+01   5.416276e-02
  2.842203e+00    2.814072e+01   5.427084e-02
  2.845868e+00    2.804173e+01   5.428898e-02
  2.849533e+00    2.743476e+01   5.382677e-02
  2.853198e+00    2.651887e+01   5.304827e-02
  2.856863e+00    2.522961e+01   5.184905e-02
  2.860528e+00    2.449928e+01   5.121215e-02
  2.864193e+00    2.375977e+01   5.055345e-02
  2.867858e+00    2.325216e+01   5.011830e-02
  2.871522e+00    2.279668e+01   4.972926e-02
  2.875187e+00    2.224084e+01   4.923397e-02
  2.878852e+00    2.206159e+01   4.914646e-02
  2.882517e+00    2.189995e+01   4.905936e-02
  2.886182e+00    2.174461e+01   4.899368e-02
  2.889847e+00    2.169098e+01   4.904321e-02
  2.893512e+00    2.170120e+01   4.917716e-02
  2.897176e+00    2.177553e+01   4.949943e-02
  2.900841e+00    2.205969e+01   5.007677e-02
  2.904506e+00    2.211851e+01   5.038377e-02
  2.908171e+00    2.213334e+01   5.063263e-02
  2.911836e+00    2.255653e+01   5.134593e-02
  2.915501e+00    2.273479e+01   5.177264e-02
  2.919166e+00    2.289536e+01   5.217418e-02
  2.922831e+00    2.289417e+01   5.238297e-02
  2.926495e+00    2.303171e+01   5.275334e-02
  2.930160e+00    2.319266e+01   5.314567e-02
  2.933825e+00    2.334551e+01   5.352777e-02
  2.937490e+00    2.342926e+01   5.382258e-02
  2.941155e+00    2.355366e+01   5.416512e-02
  2.944820e+00    2.340678e+01   5.420868e-02
  2.948485e+00    2.341022e+01   5.451562e-02
  2.952149e+00    2.334254e+01   5.476416e-02
  2.955814e+00    2.295539e+01   5.461721e-02
  2.959479e+00    2.293750e+01   5.489475e-02
  2.963144e+00    2.303898e+01   5.533137e-02
  2.966809e+00    2.307310e+01   5.567577e-02
  2.970474e+00    2.284165e+01   5.568698e-02
  2.974139e+00    2.277353e+01   5.590751e-02
  2.977804e+00    2.289583e+01   5.640935e-02
  2.981468e+00    2.304054e+01   5.697141e-02
  2.985133e+00    2.332187e+01   5.770136e-02
  2.988798e+00    2.372201e+01   5.855941e-02
  2.992463e+00    2.403653e+01   5.930969e-02
  2.996128e+00    2.409858e+01   5.974930e-02
  2.999793e+00    2.439323e+01   6.050304e-02
  3.003458e+00    2.444687e+01   6.093344e-02
  3.007122e+00    2.445820e+01   6.131603e-02
  3.010787e+00    2.453494e+01   6.175319e-02
  3.014452e+00    2.510857e+01   6.285828e-02
  3.018117e+00    2.551327e+01   6.373415e-02
  3.021782e+00    2.576303e+01   6.442978e-02
  3.025447e+00    2.569221e+01   6.470866e-02
  3.029112e+00    2.520613e+01   6.445071e-02
  3.032777e+00    2.474349e+01   6.421279e-02
  3.036441e+00    2.468021e+01   6.451563e-02
  3.040106e+00    2.467489e+01   6.486116e-02
  3.043771e+00    2.419490e+01   6.461618e-02
  3.047436e+00    2.365572e+01   6.423946e-02
  3.051101e+00    2.287682e+01   6.351934e-02
  3.054766e+00    2.218715e+01   6.289479e-02
  3.058431e+00    2.174515e+01   6.262290e-02
  3.062095e+00    2.117412e+01   6.214822e-02
  3.065760e+00    2.080729e+01   6.194755e-02
  3.069425e+00    2.023720e+01   6.165211e-02
  3.073090e+00    2.019233e+01   6.222978e-02
  3.076755e+00    2.053209e+01   6.337901e-02
  3.080420e+00    2.038556e+01   6.379162e-02
  3.084085e+00    2.090079e+01   6.571430e-02
  3.087750e+00    2.143103e+01   6.843976e-02
  3.091414e+00    2.213009e+01   7.121671e-02
  3.095079e+00    2.223679e+01   7.295426e-02
  3.098744e+00    2.146044e+01   7.313940e-02
  3.102409e+00    2.098024e+01   7.373933e-02
  3.106074e+00    2.094591e+01   7.510011e-02
  3.109739e+00    2.046925e+01   7.563715e-02
  3.113404e+00    2.078631e+01   7.764081e-02
  3.117068e+00    2.044342e+01   7.841221e-02
  3.120733e+00    2.031169e+01   7.960291e-02
  3.124398e+00    1.995166e+01   8.033322e-02
  3.128063e+00    1.976321e+01   8.143666e-02
  3.131728e+00    1.984246e+01   8.312181e-02
  3.135393e+00    2.020843e+01   8.549843e-02
  3.139058e+00    2.038082e+01   9.855662e-02
  3.142722e+00    2.024064e+01   1.097149e-01
  3.146387e+00    2.024220e+01   1.175661e-01
  3.150052e+00    2.048354e+01   1.264379e-01
  3.153717e+00    1.967150e+01   1.325389e-01
  3.157382e+00    1.949849e+01   1.418904e-01
  3.161047e+00    1.876627e+01   1.502736e-01
  3.164712e+00    1.825958e+01   1.616516e-01
  3.168377e+00    1.786516e+01   1.765397e-01
  3.172041e+00    1.801850e+01   1.993453e-01
  3.175706e+00    1.796114e+01   2.307767e-01
  3.179371e+00    1.703424e+01   2.745358e-01
  3.183036e+00    1.808090e+01   3.912944e-01
  3.186701e+00    1.921349e+01   9.529437e-01
  3.190366e+00    0.000000e+00   0.000000e+00
  3.194031e+00    0.000000e+00   0.000000e+00
  3.197695e+00    0.000000e+00   0.000000e+00
  3.201360e+00    0.000000e+00   0.000000e+00
  3.205025e+00    0.000000e+00   0.000000e+00
  3.208690e+00    0.000000e+00   0.000000e+00
  3.212355e+00    0.000000e+00   0.000000e+00
  3.216020e+00    0.000000e+00   0.000000e+00
  3.219685e+00    0.000000e+00   0.000000e+00
  3.223350e+00    0.000000e+00   0.000000e+00
  3.227014e+00    0.000000e+00   0.000000e+00
  3.230679e+00    0.000000e+00   0.000000e+00
  3.234344e+00    0.000000e+00   0.000000e+00
  3.238009e+00    0.000000e+00   0.000000e+00
  3.241674e+00    0.000000e+00   0.000000e+00
  3.245339e+00    0.000000e+00   0.000000e+00
  3.249004e+00    0.000000e+00   0.000000e+00
  3.252668e+00    0.000000e+00   0.000000e+00
  3.256333e+00    0.000000e+00   0.000000e+00
  3.259998e+00    0.000000e+00   0.000000e+00
  3.263663e+00    0.000000e+00   0.000000e+00
  3.267328e+00    0.000000e+00   0.000000e+00
  3.270993e+00    0.000000e+00   0.000000e+00
  3.274658e+00    0.000000e+00   0.000000e+00
  3.278323e+00    0.000000e+00   0.000000e+00
  3.281987e+00    0.000000e+00   0.000000e+00
  3.285652e+00    0.000000e+00   0.000000e+00
  3.289317e+00    0.000000e+00   0.000000e+00
  3.292982e+00    0.000000e+00   0.000000e+00
  3.296647e+00    0.000000e+00   0.000000e+00
  3.300312e+00    0.000000e+00   0.000000e+00
  3.303977e+00    0.000000e+00   0.000000e+00
  3.307641e+00    0.000000e+00   0.000000e+00
  3.311306e+00    0.000000e+00   0.000000e+00
  3.314971e+00    0.000000e+00   0.000000e+00
  3.318636e+00    0.000000e+00   0.000000e+00
  3.322301e+00    0.000000e+00   0.000000e+00
  3.325966e+00    0.000000e+00   0.000000e+00
  3.329631e+00    0.000000e+00   0.000000e+00
  3.333296e+00    0.000000e+00   0.000000e+00
  3.336960e+00    0.000000e+00   0.000000e+00
  3.340625e+00    0.000000e+00   0.000000e+00
  3.344290e+00    0.000000e+00   0.000000e+00
  3.347955e+00    0.000000e+00   0.000000e+00
  3.351620e+00    0.000000e+00   0.000000e+00
  3.355285e+00    0.000000e+00   0.000000e+00
  3.358950e+00    0.000000e+00   0.000000e+00
  3.362614e+00    0.000000e+00   0.000000e+00
  3.366279e+00    0.000000e+00   0.000000e+00
  3.369944e+00    0.000000e+00   0.000000e+00
  3.373609e+00    0.000000e+00   0.000000e+00
  3.377274e+00    0.000000e+00   0.000000e+00
  3.380939e+00    0.000000e+00   0.000000e+00
  3.384604e+00    0.000000e+00   0.000000e+00
  3.388269e+00    0.000000e+00   0.000000e+00
  3.391933e+00    0.000000e+00   0.000000e+00
  3.395598e+00    0.000000e+00   0.000000e+00
  3.399263e+00    0.000000e+00   0.000000e+00
  3.402928e+00    0.000000e+00   0.000000e+00
  3.406593e+00    0.000000e+00   0.000000e+00
  3.410258e+00    0.000000e+00   0.000000e+00
  3.413923e+00    0.000000e+00   0.000000e+00
  3.417587e+00    0.000000e+00   0.000000e+00
  3.421252e+00    0.000000e+00   0.000000e+00
  3.424917e+00    0.000000e+00   0.000000e+00
  3.428582e+00    0.000000e+00   0.000000e+00
  3.432247e+00    0.000000e+00   0.000000e+00
  3.435912e+00    0.000000e+00   0.000000e+00
  3.439577e+00    0.000000e+00   0.000000e+00
  3.443242e+00    0.000000e+00   0.000000e+00
  3.446906e+00    0.000000e+00   0.000000e+00
  3.450571e+00    0.000000e+00   0.000000e+00
  3.454236e+00    0.000000e+00   0.000000e+00
  3.457901e+00    0.000000e+00   0.000000e+00
  3.461566e+00    0.000000e+00   0.000000e+00
  3.465231e+00    0.000000e+00   0.000000e+00
  3.468896e+00    0.000000e+00   0.000000e+00
  3.472560e+00    0.000000e+00   0.000000e+00
  3.476225e+00    0.000000e+00   0.000000e+00
  3.479890e+00    0.000000e+00   0.000000e+00
  3.483555e+00    0.000000e+00   0.000000e+00
  3.487220e+00    0.000000e+00   0.000000e+00
  3.490885e+00    0.000000e+00   0.000000e+00
  3.494550e+00    0.000000e+00   0.000000e+00
  3.498215e+00    0.000000e+00   0.000000e+00
  3.501879e+00    0.000000e+00   0.000000e+00
  3.505544e+00    0.000000e+00   0.000000e+00
  3.509209e+00    0.000000e+00   0.000000e+00
  3.512874e+00    0.000000e+00   0.000000e+00
  3.516539e+00    0.000000e+00   0.000000e+00
  3.520204e+00    0.000000e+00   0.000000e+00
  3.523869e+00    0.000000e+00   0.000000e+00
  3.527533e+00    0.000000e+00   0.000000e+00
  3.531198e+00    0.000000e+00   0.000000e+00
  3.534863e+00    0.000000e+00   0.000000e+00
  3.538528e+00    0.000000e+00   0.000000e+00
  3.542193e+00    0.000000e+00   0.000000e+00
  3.545858e+00    0.000000e+00   0.000000e+00
  3.549523e+00    0.000000e+00   0.000000e+00
  3.553188e+00    0.000000e+00   0.000000e+00
  3.556852e+00    0.000000e+00   0.000000e+00
  3.560517e+00    0.000000e+00   0.000000e+00
  3.564182e+00    0.000000e+00   0.000000e+00
  3.567847e+00    0.000000e+00   0.000000e+00
  3.571512e+00    0.000000e+00   0.000000e+00
  3.575177e+00    0.000000e+00   0.000000e+00
  3.578842e+00    0.000000e+00   0.000000e+00
  3.582506e+00    0.000000e+00   0.000000e+00
  3.586171e+00    0.000000e+00   0.000000e+00
  3.589836e+00    0.000000e+00   0.000000e+00
  3.593501e+00    0.000000e+00   0.000000e+00
  3.597166e+00    0.000000e+00   0.000000e+00
  3.600831e+00    0.000000e+00   0.000000e+00
  3.604496e+00    0.000000e+00   0.000000e+00
  3.608161e+00    0.000000e+00   0.000000e+00
  3.611825e+00    0.000000e+00   0.000000e+00
  3.615490e+00    0.000000e+00   0.000000e+00
  3.619155e+00    0.000000e+00   0.000000e+00
  3.622820e+00    0.000000e+00   0.000000e+00
  3.626485e+00    0.000000e+00   0.000000e+00
  3.630150e+00    0.000000e+00   0.000000e+00
  3.633815e+00    0.000000e+00   0.000000e+00
  3.637479e+00    0.000000e+00   0.000000e+00
  3.641144e+00    0.000000e+00   0.000000e+00
  3.644809e+00    0.000000e+00   0.000000e+00
  3.648474e+00    0.000000e+00   0.000000e+00
  3.652139e+00    0.000000e+00   0.000000e+00
  3.655804e+00    0.000000e+00   0.000000e+00
  3.659469e+00    0.000000e+00   0.000000e+00
  3.663134e+00    0.000000e+00   0.000000e+00
  3.666798e+00    0.000000e+00   0.000000e+00
  3.670463e+00    0.000000e+00   0.000000e+00
  3.674128e+00    0.000000e+00   0.000000e+00
  3.677793e+00    0.000000e+00   0.000000e+00
  3.681458e+00    0.000000e+00   0.000000e+00
  3.685123e+00    0.000000e+00   0.000000e+00
  3.688788e+00    0.000000e+00   0.000000e+00
  3.692452e+00    0.000000e+00   0.000000e+00
